# OpenSignals Text File Format. Version 1
# {"98:D3:B1:FD:3D:A9": {"position": 0, "device": "bitalino_rev", "device name": "98:D3:B1:FD:3D:A9", "device connection": "BTH98:D3:B1:FD:3D:A9", "sampling rate": 1000, "resolution": [4, 1, 1, 1, 1, 10], "firmware version": 1282, "comments": "", "keywords": "", "mode": 0, "sync interval": 2, "date": "2024-4-19", "time": "9:52:52.625", "channels": [2], "sensor": ["EGGBIT"], "label": ["A2"], "column": ["nSeq", "I1", "I2", "O1", "O2", "A2"], "special": [{}], "digital IO": [0, 0, 1, 1]}}
# EndOfHeader
0	0	0	0	0	511	
1	0	0	0	0	509	
2	0	0	0	0	508	
3	0	0	0	0	510	
4	0	0	0	0	514	
5	0	0	0	0	517	
6	0	0	0	0	513	
7	0	0	0	0	512	
8	0	0	0	0	515	
9	0	0	0	0	512	
10	0	0	0	0	511	
11	0	0	0	0	512	
12	0	0	0	0	516	
13	0	0	0	0	513	
14	0	0	0	0	510	
15	0	0	0	0	510	
0	0	0	0	0	512	
1	0	0	0	0	509	
2	0	0	0	0	504	
3	0	0	0	0	502	
4	0	0	0	0	500	
5	0	0	0	0	499	
6	0	0	0	0	503	
7	0	0	0	0	510	
8	0	0	0	0	515	
9	0	0	0	0	515	
10	0	0	0	0	515	
11	0	0	0	0	515	
12	0	0	0	0	515	
13	0	0	0	0	512	
14	0	0	0	0	513	
15	0	0	0	0	513	
0	0	0	0	0	509	
1	0	0	0	0	509	
2	0	0	0	0	511	
3	0	0	0	0	511	
4	0	0	0	0	508	
5	0	0	0	0	506	
6	0	0	0	0	514	
7	0	0	0	0	515	
8	0	0	0	0	516	
9	0	0	0	0	516	
10	0	0	0	0	510	
11	0	0	0	0	514	
12	0	0	0	0	528	
13	0	0	0	0	540	
14	0	0	0	0	543	
15	0	0	0	0	538	
0	0	0	0	0	531	
1	0	0	0	0	526	
2	0	0	0	0	527	
3	0	0	0	0	526	
4	0	0	0	0	523	
5	0	0	0	0	520	
6	0	0	0	0	519	
7	0	0	0	0	521	
8	0	0	0	0	522	
9	0	0	0	0	524	
10	0	0	0	0	528	
11	0	0	0	0	528	
12	0	0	0	0	530	
13	0	0	0	0	530	
14	0	0	0	0	525	
15	0	0	0	0	522	
0	0	0	0	0	524	
1	0	0	0	0	525	
2	0	0	0	0	526	
3	0	0	0	0	529	
4	0	0	0	0	534	
5	0	0	0	0	537	
6	0	0	0	0	537	
7	0	0	0	0	532	
8	0	0	0	0	531	
9	0	0	0	0	532	
10	0	0	0	0	535	
11	0	0	0	0	534	
12	0	0	0	0	532	
13	0	0	0	0	537	
14	0	0	0	0	536	
15	0	0	0	0	535	
0	0	0	0	0	542	
1	0	0	0	0	541	
2	0	0	0	0	537	
3	0	0	0	0	532	
4	0	0	0	0	527	
5	0	0	0	0	525	
6	0	0	0	0	527	
7	0	0	0	0	529	
8	0	0	0	0	530	
9	0	0	0	0	525	
10	0	0	0	0	519	
11	0	0	0	0	525	
12	0	0	0	0	535	
13	0	0	0	0	550	
14	0	0	0	0	555	
15	0	0	0	0	555	
0	0	0	0	0	553	
1	0	0	0	0	551	
2	0	0	0	0	545	
3	0	0	0	0	537	
4	0	0	0	0	535	
5	0	0	0	0	532	
6	0	0	0	0	536	
7	0	0	0	0	541	
8	0	0	0	0	543	
9	0	0	0	0	534	
10	0	0	0	0	519	
11	0	0	0	0	512	
12	0	0	0	0	519	
13	0	0	0	0	531	
14	0	0	0	0	540	
15	0	0	0	0	538	
0	0	0	0	0	537	
1	0	0	0	0	536	
2	0	0	0	0	535	
3	0	0	0	0	533	
4	0	0	0	0	529	
5	0	0	0	0	525	
6	0	0	0	0	524	
7	0	0	0	0	519	
8	0	0	0	0	514	
9	0	0	0	0	511	
10	0	0	0	0	510	
11	0	0	0	0	510	
12	0	0	0	0	508	
13	0	0	0	0	513	
14	0	0	0	0	522	
15	0	0	0	0	524	
0	0	0	0	0	523	
1	0	0	0	0	513	
2	0	0	0	0	508	
3	0	0	0	0	509	
4	0	0	0	0	514	
5	0	0	0	0	524	
6	0	0	0	0	525	
7	0	0	0	0	519	
8	0	0	0	0	511	
9	0	0	0	0	507	
10	0	0	0	0	508	
11	0	0	0	0	508	
12	0	0	0	0	507	
13	0	0	0	0	505	
14	0	0	0	0	505	
15	0	0	0	0	509	
0	0	0	0	0	505	
1	0	0	0	0	497	
2	0	0	0	0	493	
3	0	0	0	0	495	
4	0	0	0	0	495	
5	0	0	0	0	495	
6	0	0	0	0	492	
7	0	0	0	0	485	
8	0	0	0	0	477	
9	0	0	0	0	471	
10	0	0	0	0	470	
11	0	0	0	0	480	
12	0	0	0	0	485	
13	0	0	0	0	485	
14	0	0	0	0	487	
15	0	0	0	0	488	
0	0	0	0	0	487	
1	0	0	0	0	488	
2	0	0	0	0	490	
3	0	0	0	0	491	
4	0	0	0	0	489	
5	0	0	0	0	484	
6	0	0	0	0	469	
7	0	0	0	0	464	
8	0	0	0	0	468	
9	0	0	0	0	477	
10	0	0	0	0	480	
11	0	0	0	0	479	
12	0	0	0	0	477	
13	0	0	0	0	477	
14	0	0	0	0	481	
15	0	0	0	0	484	
0	0	0	0	0	487	
1	0	0	0	0	489	
2	0	0	0	0	491	
3	0	0	0	0	492	
4	0	0	0	0	488	
5	0	0	0	0	485	
6	0	0	0	0	483	
7	0	0	0	0	480	
8	0	0	0	0	477	
9	0	0	0	0	478	
10	0	0	0	0	481	
11	0	0	0	0	481	
12	0	0	0	0	482	
13	0	0	0	0	482	
14	0	0	0	0	483	
15	0	0	0	0	484	
0	0	0	0	0	489	
1	0	0	0	0	498	
2	0	0	0	0	499	
3	0	0	0	0	498	
4	0	0	0	0	492	
5	0	0	0	0	489	
6	0	0	0	0	488	
7	0	0	0	0	486	
8	0	0	0	0	486	
9	0	0	0	0	485	
10	0	0	0	0	482	
11	0	0	0	0	480	
12	0	0	0	0	475	
13	0	0	0	0	475	
14	0	0	0	0	474	
15	0	0	0	0	475	
0	0	0	0	0	480	
1	0	0	0	0	491	
2	0	0	0	0	497	
3	0	0	0	0	497	
4	0	0	0	0	502	
5	0	0	0	0	507	
6	0	0	0	0	509	
7	0	0	0	0	505	
8	0	0	0	0	501	
9	0	0	0	0	499	
10	0	0	0	0	498	
11	0	0	0	0	494	
12	0	0	0	0	484	
13	0	0	0	0	480	
14	0	0	0	0	479	
15	0	0	0	0	480	
0	0	0	0	0	486	
1	0	0	0	0	488	
2	0	0	0	0	489	
3	0	0	0	0	491	
4	0	0	0	0	489	
5	0	0	0	0	487	
6	0	0	0	0	485	
7	0	0	0	0	485	
8	0	0	0	0	484	
9	0	0	0	0	488	
10	0	0	0	0	488	
11	0	0	0	0	487	
12	0	0	0	0	486	
13	0	0	0	0	489	
14	0	0	0	0	498	
15	0	0	0	0	496	
0	0	0	0	0	495	
1	0	0	0	0	498	
2	0	0	0	0	498	
3	0	0	0	0	495	
4	0	0	0	0	492	
5	0	0	0	0	497	
6	0	0	0	0	503	
7	0	0	0	0	499	
8	0	0	0	0	496	
9	0	0	0	0	499	
10	0	0	0	0	507	
11	0	0	0	0	510	
12	0	0	0	0	513	
13	0	0	0	0	515	
14	0	0	0	0	512	
15	0	0	0	0	509	
0	0	0	0	0	506	
1	0	0	0	0	508	
2	0	0	0	0	509	
3	0	0	0	0	511	
4	0	0	0	0	510	
5	0	0	0	0	510	
6	0	0	0	0	508	
7	0	0	0	0	506	
8	0	0	0	0	506	
9	0	0	0	0	506	
10	0	0	0	0	504	
11	0	0	0	0	501	
12	0	0	0	0	495	
13	0	0	0	0	493	
14	0	0	0	0	496	
15	0	0	0	0	499	
0	0	0	0	0	500	
1	0	0	0	0	499	
2	0	0	0	0	499	
3	0	0	0	0	502	
4	0	0	0	0	505	
5	0	0	0	0	507	
6	0	0	0	0	508	
7	0	0	0	0	509	
8	0	0	0	0	510	
9	0	0	0	0	511	
10	0	0	0	0	513	
11	0	0	0	0	516	
12	0	0	0	0	515	
13	0	0	0	0	513	
14	0	0	0	0	511	
15	0	0	0	0	508	
0	0	0	0	0	513	
1	0	0	0	0	510	
2	0	0	0	0	508	
3	0	0	0	0	509	
4	0	0	0	0	509	
5	0	0	0	0	509	
6	0	0	0	0	508	
7	0	0	0	0	508	
8	0	0	0	0	508	
9	0	0	0	0	508	
10	0	0	0	0	508	
11	0	0	0	0	507	
12	0	0	0	0	504	
13	0	0	0	0	499	
14	0	0	0	0	497	
15	0	0	0	0	499	
0	0	0	0	0	503	
1	0	0	0	0	509	
2	0	0	0	0	511	
3	0	0	0	0	512	
4	0	0	0	0	512	
5	0	0	0	0	512	
6	0	0	0	0	515	
7	0	0	0	0	516	
8	0	0	0	0	515	
9	0	0	0	0	509	
10	0	0	0	0	504	
11	0	0	0	0	500	
12	0	0	0	0	497	
13	0	0	0	0	496	
14	0	0	0	0	496	
15	0	0	0	0	496	
0	0	0	0	0	500	
1	0	0	0	0	506	
2	0	0	0	0	504	
3	0	0	0	0	503	
4	0	0	0	0	499	
5	0	0	0	0	498	
6	0	0	0	0	503	
7	0	0	0	0	509	
8	0	0	0	0	514	
9	0	0	0	0	515	
10	0	0	0	0	520	
11	0	0	0	0	523	
12	0	0	0	0	521	
13	0	0	0	0	515	
14	0	0	0	0	512	
15	0	0	0	0	513	
0	0	0	0	0	510	
1	0	0	0	0	503	
2	0	0	0	0	500	
3	0	0	0	0	502	
4	0	0	0	0	503	
5	0	0	0	0	508	
6	0	0	0	0	510	
7	0	0	0	0	511	
8	0	0	0	0	513	
9	0	0	0	0	517	
10	0	0	0	0	518	
11	0	0	0	0	520	
12	0	0	0	0	518	
13	0	0	0	0	515	
14	0	0	0	0	509	
15	0	0	0	0	507	
0	0	0	0	0	508	
1	0	0	0	0	507	
2	0	0	0	0	505	
3	0	0	0	0	508	
4	0	0	0	0	512	
5	0	0	0	0	515	
6	0	0	0	0	511	
7	0	0	0	0	510	
8	0	0	0	0	510	
9	0	0	0	0	513	
10	0	0	0	0	515	
11	0	0	0	0	516	
12	0	0	0	0	517	
13	0	0	0	0	520	
14	0	0	0	0	526	
15	0	0	0	0	526	
0	0	0	0	0	526	
1	0	0	0	0	523	
2	0	0	0	0	520	
3	0	0	0	0	518	
4	0	0	0	0	515	
5	0	0	0	0	516	
6	0	0	0	0	520	
7	0	0	0	0	518	
8	0	0	0	0	519	
9	0	0	0	0	519	
10	0	0	0	0	518	
11	0	0	0	0	517	
12	0	0	0	0	514	
13	0	0	0	0	512	
14	0	0	0	0	511	
15	0	0	0	0	512	
0	0	0	0	0	513	
1	0	0	0	0	511	
2	0	0	0	0	501	
3	0	0	0	0	501	
4	0	0	0	0	512	
5	0	0	0	0	523	
6	0	0	0	0	527	
7	0	0	0	0	523	
8	0	0	0	0	521	
9	0	0	0	0	523	
10	0	0	0	0	521	
11	0	0	0	0	520	
12	0	0	0	0	525	
13	0	0	0	0	532	
14	0	0	0	0	530	
15	0	0	0	0	526	
0	0	0	0	0	519	
1	0	0	0	0	508	
2	0	0	0	0	501	
3	0	0	0	0	497	
4	0	0	0	0	496	
5	0	0	0	0	496	
6	0	0	0	0	493	
7	0	0	0	0	493	
8	0	0	0	0	494	
9	0	0	0	0	498	
10	0	0	0	0	501	
11	0	0	0	0	504	
12	0	0	0	0	505	
13	0	0	0	0	506	
14	0	0	0	0	508	
15	0	0	0	0	504	
0	0	0	0	0	499	
1	0	0	0	0	499	
2	0	0	0	0	496	
3	0	0	0	0	493	
4	0	0	0	0	493	
5	0	0	0	0	495	
6	0	0	0	0	499	
7	0	0	0	0	503	
8	0	0	0	0	504	
9	0	0	0	0	504	
10	0	0	0	0	507	
11	0	0	0	0	507	
12	0	0	0	0	504	
13	0	0	0	0	505	
14	0	0	0	0	506	
15	0	0	0	0	507	
0	0	0	0	0	503	
1	0	0	0	0	500	
2	0	0	0	0	496	
3	0	0	0	0	493	
4	0	0	0	0	494	
5	0	0	0	0	507	
6	0	0	0	0	514	
7	0	0	0	0	511	
8	0	0	0	0	507	
9	0	0	0	0	504	
10	0	0	0	0	505	
11	0	0	0	0	508	
12	0	0	0	0	512	
13	0	0	0	0	513	
14	0	0	0	0	512	
15	0	0	0	0	514	
0	0	0	0	0	512	
1	0	0	0	0	509	
2	0	0	0	0	506	
3	0	0	0	0	504	
4	0	0	0	0	502	
5	0	0	0	0	499	
6	0	0	0	0	497	
7	0	0	0	0	492	
8	0	0	0	0	483	
9	0	0	0	0	482	
10	0	0	0	0	492	
11	0	0	0	0	500	
12	0	0	0	0	503	
13	0	0	0	0	503	
14	0	0	0	0	505	
15	0	0	0	0	507	
0	0	0	0	0	507	
1	0	0	0	0	501	
2	0	0	0	0	499	
3	0	0	0	0	499	
4	0	0	0	0	501	
5	0	0	0	0	497	
6	0	0	0	0	501	
7	0	0	0	0	506	
8	0	0	0	0	504	
9	0	0	0	0	507	
10	0	0	0	0	512	
11	0	0	0	0	519	
12	0	0	0	0	528	
13	0	0	0	0	537	
14	0	0	0	0	547	
15	0	0	0	0	558	
0	0	0	0	0	568	
1	0	0	0	0	574	
2	0	0	0	0	579	
3	0	0	0	0	589	
4	0	0	0	0	598	
5	0	0	0	0	607	
6	0	0	0	0	615	
7	0	0	0	0	626	
8	0	0	0	0	637	
9	0	0	0	0	643	
10	0	0	0	0	655	
11	0	0	0	0	668	
12	0	0	0	0	674	
13	0	0	0	0	673	
14	0	0	0	0	668	
15	0	0	0	0	663	
0	0	0	0	0	653	
1	0	0	0	0	646	
2	0	0	0	0	641	
3	0	0	0	0	634	
4	0	0	0	0	626	
5	0	0	0	0	618	
6	0	0	0	0	604	
7	0	0	0	0	590	
8	0	0	0	0	581	
9	0	0	0	0	568	
10	0	0	0	0	555	
11	0	0	0	0	543	
12	0	0	0	0	532	
13	0	0	0	0	516	
14	0	0	0	0	499	
15	0	0	0	0	485	
0	0	0	0	0	478	
1	0	0	0	0	467	
2	0	0	0	0	457	
3	0	0	0	0	453	
4	0	0	0	0	451	
5	0	0	0	0	448	
6	0	0	0	0	448	
7	0	0	0	0	447	
8	0	0	0	0	447	
9	0	0	0	0	449	
10	0	0	0	0	448	
11	0	0	0	0	451	
12	0	0	0	0	455	
13	0	0	0	0	463	
14	0	0	0	0	467	
15	0	0	0	0	465	
0	0	0	0	0	463	
1	0	0	0	0	468	
2	0	0	0	0	473	
3	0	0	0	0	472	
4	0	0	0	0	467	
5	0	0	0	0	467	
6	0	0	0	0	469	
7	0	0	0	0	469	
8	0	0	0	0	468	
9	0	0	0	0	465	
10	0	0	0	0	464	
11	0	0	0	0	464	
12	0	0	0	0	472	
13	0	0	0	0	486	
14	0	0	0	0	494	
15	0	0	0	0	496	
0	0	0	0	0	502	
1	0	0	0	0	510	
2	0	0	0	0	510	
3	0	0	0	0	503	
4	0	0	0	0	505	
5	0	0	0	0	505	
6	0	0	0	0	499	
7	0	0	0	0	496	
8	0	0	0	0	493	
9	0	0	0	0	491	
10	0	0	0	0	488	
11	0	0	0	0	489	
12	0	0	0	0	491	
13	0	0	0	0	492	
14	0	0	0	0	494	
15	0	0	0	0	496	
0	0	0	0	0	496	
1	0	0	0	0	496	
2	0	0	0	0	494	
3	0	0	0	0	492	
4	0	0	0	0	493	
5	0	0	0	0	496	
6	0	0	0	0	494	
7	0	0	0	0	493	
8	0	0	0	0	492	
9	0	0	0	0	488	
10	0	0	0	0	487	
11	0	0	0	0	489	
12	0	0	0	0	490	
13	0	0	0	0	490	
14	0	0	0	0	492	
15	0	0	0	0	495	
0	0	0	0	0	496	
1	0	0	0	0	495	
2	0	0	0	0	498	
3	0	0	0	0	499	
4	0	0	0	0	501	
5	0	0	0	0	499	
6	0	0	0	0	496	
7	0	0	0	0	495	
8	0	0	0	0	499	
9	0	0	0	0	498	
10	0	0	0	0	495	
11	0	0	0	0	490	
12	0	0	0	0	490	
13	0	0	0	0	492	
14	0	0	0	0	494	
15	0	0	0	0	497	
0	0	0	0	0	502	
1	0	0	0	0	505	
2	0	0	0	0	505	
3	0	0	0	0	506	
4	0	0	0	0	506	
5	0	0	0	0	506	
6	0	0	0	0	505	
7	0	0	0	0	503	
8	0	0	0	0	501	
9	0	0	0	0	501	
10	0	0	0	0	504	
11	0	0	0	0	504	
12	0	0	0	0	504	
13	0	0	0	0	504	
14	0	0	0	0	505	
15	0	0	0	0	508	
0	0	0	0	0	510	
1	0	0	0	0	512	
2	0	0	0	0	515	
3	0	0	0	0	515	
4	0	0	0	0	507	
5	0	0	0	0	495	
6	0	0	0	0	488	
7	0	0	0	0	486	
8	0	0	0	0	492	
9	0	0	0	0	503	
10	0	0	0	0	513	
11	0	0	0	0	514	
12	0	0	0	0	515	
13	0	0	0	0	523	
14	0	0	0	0	529	
15	0	0	0	0	527	
0	0	0	0	0	521	
1	0	0	0	0	518	
2	0	0	0	0	520	
3	0	0	0	0	526	
4	0	0	0	0	527	
5	0	0	0	0	526	
6	0	0	0	0	521	
7	0	0	0	0	516	
8	0	0	0	0	516	
9	0	0	0	0	519	
10	0	0	0	0	516	
11	0	0	0	0	510	
12	0	0	0	0	504	
13	0	0	0	0	504	
14	0	0	0	0	511	
15	0	0	0	0	520	
0	0	0	0	0	526	
1	0	0	0	0	525	
2	0	0	0	0	526	
3	0	0	0	0	526	
4	0	0	0	0	525	
5	0	0	0	0	524	
6	0	0	0	0	522	
7	0	0	0	0	520	
8	0	0	0	0	515	
9	0	0	0	0	509	
10	0	0	0	0	505	
11	0	0	0	0	505	
12	0	0	0	0	510	
13	0	0	0	0	512	
14	0	0	0	0	514	
15	0	0	0	0	516	
0	0	0	0	0	520	
1	0	0	0	0	522	
2	0	0	0	0	523	
3	0	0	0	0	526	
4	0	0	0	0	527	
5	0	0	0	0	525	
6	0	0	0	0	521	
7	0	0	0	0	518	
8	0	0	0	0	513	
9	0	0	0	0	518	
10	0	0	0	0	521	
11	0	0	0	0	524	
12	0	0	0	0	520	
13	0	0	0	0	515	
14	0	0	0	0	515	
15	0	0	0	0	516	
0	0	0	0	0	516	
1	0	0	0	0	519	
2	0	0	0	0	526	
3	0	0	0	0	531	
4	0	0	0	0	533	
5	0	0	0	0	531	
6	0	0	0	0	531	
7	0	0	0	0	531	
8	0	0	0	0	529	
9	0	0	0	0	530	
10	0	0	0	0	529	
11	0	0	0	0	528	
12	0	0	0	0	526	
13	0	0	0	0	523	
14	0	0	0	0	522	
15	0	0	0	0	523	
0	0	0	0	0	523	
1	0	0	0	0	524	
2	0	0	0	0	527	
3	0	0	0	0	531	
4	0	0	0	0	536	
5	0	0	0	0	534	
6	0	0	0	0	535	
7	0	0	0	0	540	
8	0	0	0	0	546	
9	0	0	0	0	550	
10	0	0	0	0	540	
11	0	0	0	0	528	
12	0	0	0	0	524	
13	0	0	0	0	526	
14	0	0	0	0	525	
15	0	0	0	0	528	
0	0	0	0	0	533	
1	0	0	0	0	537	
2	0	0	0	0	539	
3	0	0	0	0	538	
4	0	0	0	0	535	
5	0	0	0	0	531	
6	0	0	0	0	529	
7	0	0	0	0	529	
8	0	0	0	0	531	
9	0	0	0	0	535	
10	0	0	0	0	539	
11	0	0	0	0	537	
12	0	0	0	0	533	
13	0	0	0	0	527	
14	0	0	0	0	526	
15	0	0	0	0	527	
0	0	0	0	0	521	
1	0	0	0	0	518	
2	0	0	0	0	512	
3	0	0	0	0	510	
4	0	0	0	0	508	
5	0	0	0	0	508	
6	0	0	0	0	517	
7	0	0	0	0	524	
8	0	0	0	0	526	
9	0	0	0	0	524	
10	0	0	0	0	521	
11	0	0	0	0	515	
12	0	0	0	0	508	
13	0	0	0	0	504	
14	0	0	0	0	503	
15	0	0	0	0	500	
0	0	0	0	0	497	
1	0	0	0	0	499	
2	0	0	0	0	499	
3	0	0	0	0	501	
4	0	0	0	0	501	
5	0	0	0	0	499	
6	0	0	0	0	499	
7	0	0	0	0	497	
8	0	0	0	0	499	
9	0	0	0	0	497	
10	0	0	0	0	494	
11	0	0	0	0	493	
12	0	0	0	0	492	
13	0	0	0	0	489	
14	0	0	0	0	487	
15	0	0	0	0	485	
0	0	0	0	0	484	
1	0	0	0	0	483	
2	0	0	0	0	487	
3	0	0	0	0	490	
4	0	0	0	0	493	
5	0	0	0	0	494	
6	0	0	0	0	492	
7	0	0	0	0	489	
8	0	0	0	0	487	
9	0	0	0	0	486	
10	0	0	0	0	483	
11	0	0	0	0	489	
12	0	0	0	0	499	
13	0	0	0	0	500	
14	0	0	0	0	496	
15	0	0	0	0	488	
0	0	0	0	0	485	
1	0	0	0	0	484	
2	0	0	0	0	487	
3	0	0	0	0	489	
4	0	0	0	0	492	
5	0	0	0	0	492	
6	0	0	0	0	489	
7	0	0	0	0	486	
8	0	0	0	0	486	
9	0	0	0	0	491	
10	0	0	0	0	494	
11	0	0	0	0	490	
12	0	0	0	0	482	
13	0	0	0	0	480	
14	0	0	0	0	481	
15	0	0	0	0	486	
0	0	0	0	0	490	
1	0	0	0	0	492	
2	0	0	0	0	490	
3	0	0	0	0	492	
4	0	0	0	0	496	
5	0	0	0	0	502	
6	0	0	0	0	504	
7	0	0	0	0	501	
8	0	0	0	0	498	
9	0	0	0	0	496	
10	0	0	0	0	496	
11	0	0	0	0	500	
12	0	0	0	0	501	
13	0	0	0	0	503	
14	0	0	0	0	500	
15	0	0	0	0	493	
0	0	0	0	0	485	
1	0	0	0	0	479	
2	0	0	0	0	478	
3	0	0	0	0	485	
4	0	0	0	0	494	
5	0	0	0	0	501	
6	0	0	0	0	503	
7	0	0	0	0	502	
8	0	0	0	0	499	
9	0	0	0	0	497	
10	0	0	0	0	499	
11	0	0	0	0	501	
12	0	0	0	0	499	
13	0	0	0	0	498	
14	0	0	0	0	496	
15	0	0	0	0	495	
0	0	0	0	0	496	
1	0	0	0	0	493	
2	0	0	0	0	491	
3	0	0	0	0	490	
4	0	0	0	0	491	
5	0	0	0	0	492	
6	0	0	0	0	491	
7	0	0	0	0	494	
8	0	0	0	0	496	
9	0	0	0	0	496	
10	0	0	0	0	494	
11	0	0	0	0	495	
12	0	0	0	0	495	
13	0	0	0	0	494	
14	0	0	0	0	492	
15	0	0	0	0	494	
0	0	0	0	0	499	
1	0	0	0	0	504	
2	0	0	0	0	504	
3	0	0	0	0	499	
4	0	0	0	0	492	
5	0	0	0	0	491	
6	0	0	0	0	497	
7	0	0	0	0	506	
8	0	0	0	0	510	
9	0	0	0	0	508	
10	0	0	0	0	506	
11	0	0	0	0	510	
12	0	0	0	0	512	
13	0	0	0	0	512	
14	0	0	0	0	512	
15	0	0	0	0	509	
0	0	0	0	0	506	
1	0	0	0	0	504	
2	0	0	0	0	501	
3	0	0	0	0	498	
4	0	0	0	0	495	
5	0	0	0	0	493	
6	0	0	0	0	496	
7	0	0	0	0	499	
8	0	0	0	0	503	
9	0	0	0	0	504	
10	0	0	0	0	503	
11	0	0	0	0	505	
12	0	0	0	0	505	
13	0	0	0	0	503	
14	0	0	0	0	504	
15	0	0	0	0	502	
0	0	0	0	0	498	
1	0	0	0	0	498	
2	0	0	0	0	497	
3	0	0	0	0	493	
4	0	0	0	0	494	
5	0	0	0	0	498	
6	0	0	0	0	503	
7	0	0	0	0	507	
8	0	0	0	0	512	
9	0	0	0	0	513	
10	0	0	0	0	510	
11	0	0	0	0	507	
12	0	0	0	0	508	
13	0	0	0	0	509	
14	0	0	0	0	508	
15	0	0	0	0	502	
0	0	0	0	0	492	
1	0	0	0	0	490	
2	0	0	0	0	498	
3	0	0	0	0	508	
4	0	0	0	0	511	
5	0	0	0	0	510	
6	0	0	0	0	507	
7	0	0	0	0	507	
8	0	0	0	0	505	
9	0	0	0	0	508	
10	0	0	0	0	512	
11	0	0	0	0	516	
12	0	0	0	0	513	
13	0	0	0	0	511	
14	0	0	0	0	510	
15	0	0	0	0	509	
0	0	0	0	0	509	
1	0	0	0	0	508	
2	0	0	0	0	504	
3	0	0	0	0	501	
4	0	0	0	0	503	
5	0	0	0	0	504	
6	0	0	0	0	503	
7	0	0	0	0	504	
8	0	0	0	0	508	
9	0	0	0	0	508	
10	0	0	0	0	507	
11	0	0	0	0	510	
12	0	0	0	0	515	
13	0	0	0	0	518	
14	0	0	0	0	517	
15	0	0	0	0	517	
0	0	0	0	0	515	
1	0	0	0	0	514	
2	0	0	0	0	514	
3	0	0	0	0	515	
4	0	0	0	0	513	
5	0	0	0	0	509	
6	0	0	0	0	510	
7	0	0	0	0	507	
8	0	0	0	0	502	
9	0	0	0	0	503	
10	0	0	0	0	503	
11	0	0	0	0	502	
12	0	0	0	0	499	
13	0	0	0	0	503	
14	0	0	0	0	504	
15	0	0	0	0	510	
0	0	0	0	0	515	
1	0	0	0	0	515	
2	0	0	0	0	514	
3	0	0	0	0	515	
4	0	0	0	0	513	
5	0	0	0	0	512	
6	0	0	0	0	510	
7	0	0	0	0	507	
8	0	0	0	0	505	
9	0	0	0	0	506	
10	0	0	0	0	509	
11	0	0	0	0	513	
12	0	0	0	0	519	
13	0	0	0	0	520	
14	0	0	0	0	519	
15	0	0	0	0	519	
0	0	0	0	0	516	
1	0	0	0	0	513	
2	0	0	0	0	514	
3	0	0	0	0	514	
4	0	0	0	0	514	
5	0	0	0	0	512	
6	0	0	0	0	507	
7	0	0	0	0	501	
8	0	0	0	0	493	
9	0	0	0	0	492	
10	0	0	0	0	499	
11	0	0	0	0	508	
12	0	0	0	0	512	
13	0	0	0	0	515	
14	0	0	0	0	519	
15	0	0	0	0	521	
0	0	0	0	0	524	
1	0	0	0	0	523	
2	0	0	0	0	520	
3	0	0	0	0	519	
4	0	0	0	0	520	
5	0	0	0	0	513	
6	0	0	0	0	505	
7	0	0	0	0	500	
8	0	0	0	0	502	
9	0	0	0	0	506	
10	0	0	0	0	506	
11	0	0	0	0	504	
12	0	0	0	0	504	
13	0	0	0	0	508	
14	0	0	0	0	509	
15	0	0	0	0	511	
0	0	0	0	0	512	
1	0	0	0	0	512	
2	0	0	0	0	513	
3	0	0	0	0	513	
4	0	0	0	0	510	
5	0	0	0	0	509	
6	0	0	0	0	509	
7	0	0	0	0	511	
8	0	0	0	0	510	
9	0	0	0	0	509	
10	0	0	0	0	508	
11	0	0	0	0	508	
12	0	0	0	0	509	
13	0	0	0	0	510	
14	0	0	0	0	513	
15	0	0	0	0	516	
0	0	0	0	0	518	
1	0	0	0	0	519	
2	0	0	0	0	517	
3	0	0	0	0	510	
4	0	0	0	0	504	
5	0	0	0	0	504	
6	0	0	0	0	505	
7	0	0	0	0	515	
8	0	0	0	0	528	
9	0	0	0	0	529	
10	0	0	0	0	525	
11	0	0	0	0	526	
12	0	0	0	0	522	
13	0	0	0	0	522	
14	0	0	0	0	520	
15	0	0	0	0	518	
0	0	0	0	0	522	
1	0	0	0	0	521	
2	0	0	0	0	521	
3	0	0	0	0	523	
4	0	0	0	0	524	
5	0	0	0	0	525	
6	0	0	0	0	526	
7	0	0	0	0	524	
8	0	0	0	0	523	
9	0	0	0	0	524	
10	0	0	0	0	527	
11	0	0	0	0	525	
12	0	0	0	0	519	
13	0	0	0	0	513	
14	0	0	0	0	509	
15	0	0	0	0	514	
0	0	0	0	0	525	
1	0	0	0	0	534	
2	0	0	0	0	537	
3	0	0	0	0	532	
4	0	0	0	0	524	
5	0	0	0	0	518	
6	0	0	0	0	517	
7	0	0	0	0	516	
8	0	0	0	0	512	
9	0	0	0	0	505	
10	0	0	0	0	502	
11	0	0	0	0	500	
12	0	0	0	0	501	
13	0	0	0	0	502	
14	0	0	0	0	500	
15	0	0	0	0	500	
0	0	0	0	0	499	
1	0	0	0	0	497	
2	0	0	0	0	503	
3	0	0	0	0	507	
4	0	0	0	0	505	
5	0	0	0	0	500	
6	0	0	0	0	500	
7	0	0	0	0	501	
8	0	0	0	0	502	
9	0	0	0	0	502	
10	0	0	0	0	500	
11	0	0	0	0	501	
12	0	0	0	0	502	
13	0	0	0	0	503	
14	0	0	0	0	504	
15	0	0	0	0	504	
0	0	0	0	0	507	
1	0	0	0	0	508	
2	0	0	0	0	508	
3	0	0	0	0	507	
4	0	0	0	0	507	
5	0	0	0	0	508	
6	0	0	0	0	508	
7	0	0	0	0	508	
8	0	0	0	0	507	
9	0	0	0	0	504	
10	0	0	0	0	504	
11	0	0	0	0	502	
12	0	0	0	0	502	
13	0	0	0	0	504	
14	0	0	0	0	504	
15	0	0	0	0	505	
0	0	0	0	0	507	
1	0	0	0	0	508	
2	0	0	0	0	502	
3	0	0	0	0	493	
4	0	0	0	0	492	
5	0	0	0	0	501	
6	0	0	0	0	515	
7	0	0	0	0	518	
8	0	0	0	0	515	
9	0	0	0	0	513	
10	0	0	0	0	513	
11	0	0	0	0	515	
12	0	0	0	0	512	
13	0	0	0	0	508	
14	0	0	0	0	502	
15	0	0	0	0	503	
0	0	0	0	0	506	
1	0	0	0	0	513	
2	0	0	0	0	518	
3	0	0	0	0	518	
4	0	0	0	0	516	
5	0	0	0	0	514	
6	0	0	0	0	513	
7	0	0	0	0	512	
8	0	0	0	0	505	
9	0	0	0	0	495	
10	0	0	0	0	491	
11	0	0	0	0	490	
12	0	0	0	0	495	
13	0	0	0	0	498	
14	0	0	0	0	495	
15	0	0	0	0	493	
0	0	0	0	0	496	
1	0	0	0	0	503	
2	0	0	0	0	513	
3	0	0	0	0	521	
4	0	0	0	0	526	
5	0	0	0	0	530	
6	0	0	0	0	539	
7	0	0	0	0	543	
8	0	0	0	0	545	
9	0	0	0	0	553	
10	0	0	0	0	569	
11	0	0	0	0	584	
12	0	0	0	0	599	
13	0	0	0	0	611	
14	0	0	0	0	620	
15	0	0	0	0	628	
0	0	0	0	0	640	
1	0	0	0	0	654	
2	0	0	0	0	665	
3	0	0	0	0	673	
4	0	0	0	0	681	
5	0	0	0	0	686	
6	0	0	0	0	689	
7	0	0	0	0	689	
8	0	0	0	0	686	
9	0	0	0	0	679	
10	0	0	0	0	673	
11	0	0	0	0	661	
12	0	0	0	0	646	
13	0	0	0	0	635	
14	0	0	0	0	623	
15	0	0	0	0	611	
0	0	0	0	0	596	
1	0	0	0	0	581	
2	0	0	0	0	565	
3	0	0	0	0	550	
4	0	0	0	0	538	
5	0	0	0	0	524	
6	0	0	0	0	512	
7	0	0	0	0	492	
8	0	0	0	0	472	
9	0	0	0	0	463	
10	0	0	0	0	460	
11	0	0	0	0	461	
12	0	0	0	0	457	
13	0	0	0	0	453	
14	0	0	0	0	457	
15	0	0	0	0	463	
0	0	0	0	0	470	
1	0	0	0	0	468	
2	0	0	0	0	467	
3	0	0	0	0	469	
4	0	0	0	0	471	
5	0	0	0	0	472	
6	0	0	0	0	473	
7	0	0	0	0	475	
8	0	0	0	0	476	
9	0	0	0	0	476	
10	0	0	0	0	475	
11	0	0	0	0	476	
12	0	0	0	0	472	
13	0	0	0	0	469	
14	0	0	0	0	467	
15	0	0	0	0	464	
0	0	0	0	0	461	
1	0	0	0	0	464	
2	0	0	0	0	468	
3	0	0	0	0	471	
4	0	0	0	0	473	
5	0	0	0	0	484	
6	0	0	0	0	496	
7	0	0	0	0	501	
8	0	0	0	0	497	
9	0	0	0	0	492	
10	0	0	0	0	489	
11	0	0	0	0	489	
12	0	0	0	0	487	
13	0	0	0	0	481	
14	0	0	0	0	479	
15	0	0	0	0	476	
0	0	0	0	0	475	
1	0	0	0	0	480	
2	0	0	0	0	487	
3	0	0	0	0	487	
4	0	0	0	0	488	
5	0	0	0	0	492	
6	0	0	0	0	496	
7	0	0	0	0	497	
8	0	0	0	0	495	
9	0	0	0	0	491	
10	0	0	0	0	493	
11	0	0	0	0	494	
12	0	0	0	0	494	
13	0	0	0	0	497	
14	0	0	0	0	499	
15	0	0	0	0	498	
0	0	0	0	0	498	
1	0	0	0	0	498	
2	0	0	0	0	496	
3	0	0	0	0	497	
4	0	0	0	0	495	
5	0	0	0	0	494	
6	0	0	0	0	491	
7	0	0	0	0	487	
8	0	0	0	0	480	
9	0	0	0	0	480	
10	0	0	0	0	493	
11	0	0	0	0	502	
12	0	0	0	0	502	
13	0	0	0	0	502	
14	0	0	0	0	503	
15	0	0	0	0	498	
0	0	0	0	0	496	
1	0	0	0	0	497	
2	0	0	0	0	494	
3	0	0	0	0	493	
4	0	0	0	0	493	
5	0	0	0	0	492	
6	0	0	0	0	495	
7	0	0	0	0	496	
8	0	0	0	0	495	
9	0	0	0	0	496	
10	0	0	0	0	495	
11	0	0	0	0	497	
12	0	0	0	0	504	
13	0	0	0	0	511	
14	0	0	0	0	514	
15	0	0	0	0	514	
0	0	0	0	0	512	
1	0	0	0	0	511	
2	0	0	0	0	513	
3	0	0	0	0	508	
4	0	0	0	0	501	
5	0	0	0	0	500	
6	0	0	0	0	499	
7	0	0	0	0	499	
8	0	0	0	0	497	
9	0	0	0	0	495	
10	0	0	0	0	497	
11	0	0	0	0	500	
12	0	0	0	0	502	
13	0	0	0	0	505	
14	0	0	0	0	508	
15	0	0	0	0	508	
0	0	0	0	0	510	
1	0	0	0	0	507	
2	0	0	0	0	504	
3	0	0	0	0	504	
4	0	0	0	0	508	
5	0	0	0	0	515	
6	0	0	0	0	522	
7	0	0	0	0	524	
8	0	0	0	0	525	
9	0	0	0	0	523	
10	0	0	0	0	519	
11	0	0	0	0	516	
12	0	0	0	0	514	
13	0	0	0	0	515	
14	0	0	0	0	521	
15	0	0	0	0	521	
0	0	0	0	0	515	
1	0	0	0	0	511	
2	0	0	0	0	505	
3	0	0	0	0	500	
4	0	0	0	0	502	
5	0	0	0	0	503	
6	0	0	0	0	502	
7	0	0	0	0	497	
8	0	0	0	0	496	
9	0	0	0	0	503	
10	0	0	0	0	510	
11	0	0	0	0	511	
12	0	0	0	0	510	
13	0	0	0	0	508	
14	0	0	0	0	506	
15	0	0	0	0	507	
0	0	0	0	0	512	
1	0	0	0	0	514	
2	0	0	0	0	515	
3	0	0	0	0	515	
4	0	0	0	0	518	
5	0	0	0	0	520	
6	0	0	0	0	516	
7	0	0	0	0	517	
8	0	0	0	0	519	
9	0	0	0	0	518	
10	0	0	0	0	516	
11	0	0	0	0	518	
12	0	0	0	0	518	
13	0	0	0	0	515	
14	0	0	0	0	516	
15	0	0	0	0	517	
0	0	0	0	0	520	
1	0	0	0	0	519	
2	0	0	0	0	518	
3	0	0	0	0	518	
4	0	0	0	0	515	
5	0	0	0	0	515	
6	0	0	0	0	516	
7	0	0	0	0	517	
8	0	0	0	0	518	
9	0	0	0	0	519	
10	0	0	0	0	522	
11	0	0	0	0	524	
12	0	0	0	0	523	
13	0	0	0	0	523	
14	0	0	0	0	522	
15	0	0	0	0	525	
0	0	0	0	0	525	
1	0	0	0	0	524	
2	0	0	0	0	522	
3	0	0	0	0	521	
4	0	0	0	0	519	
5	0	0	0	0	518	
6	0	0	0	0	519	
7	0	0	0	0	518	
8	0	0	0	0	518	
9	0	0	0	0	519	
10	0	0	0	0	525	
11	0	0	0	0	530	
12	0	0	0	0	533	
13	0	0	0	0	534	
14	0	0	0	0	537	
15	0	0	0	0	538	
0	0	0	0	0	539	
1	0	0	0	0	538	
2	0	0	0	0	536	
3	0	0	0	0	532	
4	0	0	0	0	531	
5	0	0	0	0	528	
6	0	0	0	0	522	
7	0	0	0	0	521	
8	0	0	0	0	526	
9	0	0	0	0	533	
10	0	0	0	0	536	
11	0	0	0	0	536	
12	0	0	0	0	539	
13	0	0	0	0	541	
14	0	0	0	0	542	
15	0	0	0	0	541	
0	0	0	0	0	527	
1	0	0	0	0	518	
2	0	0	0	0	519	
3	0	0	0	0	523	
4	0	0	0	0	521	
5	0	0	0	0	518	
6	0	0	0	0	520	
7	0	0	0	0	527	
8	0	0	0	0	530	
9	0	0	0	0	529	
10	0	0	0	0	524	
11	0	0	0	0	521	
12	0	0	0	0	519	
13	0	0	0	0	518	
14	0	0	0	0	518	
15	0	0	0	0	517	
0	0	0	0	0	519	
1	0	0	0	0	519	
2	0	0	0	0	518	
3	0	0	0	0	519	
4	0	0	0	0	517	
5	0	0	0	0	515	
6	0	0	0	0	515	
7	0	0	0	0	516	
8	0	0	0	0	515	
9	0	0	0	0	508	
10	0	0	0	0	503	
11	0	0	0	0	502	
12	0	0	0	0	500	
13	0	0	0	0	499	
14	0	0	0	0	500	
15	0	0	0	0	504	
0	0	0	0	0	507	
1	0	0	0	0	512	
2	0	0	0	0	514	
3	0	0	0	0	511	
4	0	0	0	0	509	
5	0	0	0	0	505	
6	0	0	0	0	499	
7	0	0	0	0	495	
8	0	0	0	0	491	
9	0	0	0	0	487	
10	0	0	0	0	487	
11	0	0	0	0	491	
12	0	0	0	0	493	
13	0	0	0	0	492	
14	0	0	0	0	490	
15	0	0	0	0	489	
0	0	0	0	0	490	
1	0	0	0	0	489	
2	0	0	0	0	487	
3	0	0	0	0	489	
4	0	0	0	0	491	
5	0	0	0	0	491	
6	0	0	0	0	494	
7	0	0	0	0	499	
8	0	0	0	0	501	
9	0	0	0	0	499	
10	0	0	0	0	495	
11	0	0	0	0	492	
12	0	0	0	0	492	
13	0	0	0	0	492	
14	0	0	0	0	495	
15	0	0	0	0	498	
0	0	0	0	0	502	
1	0	0	0	0	503	
2	0	0	0	0	499	
3	0	0	0	0	494	
4	0	0	0	0	486	
5	0	0	0	0	478	
6	0	0	0	0	474	
7	0	0	0	0	481	
8	0	0	0	0	498	
9	0	0	0	0	509	
10	0	0	0	0	508	
11	0	0	0	0	502	
12	0	0	0	0	495	
13	0	0	0	0	491	
14	0	0	0	0	495	
15	0	0	0	0	501	
0	0	0	0	0	503	
1	0	0	0	0	497	
2	0	0	0	0	483	
3	0	0	0	0	480	
4	0	0	0	0	484	
5	0	0	0	0	490	
6	0	0	0	0	492	
7	0	0	0	0	496	
8	0	0	0	0	500	
9	0	0	0	0	500	
10	0	0	0	0	497	
11	0	0	0	0	492	
12	0	0	0	0	488	
13	0	0	0	0	485	
14	0	0	0	0	483	
15	0	0	0	0	486	
0	0	0	0	0	495	
1	0	0	0	0	501	
2	0	0	0	0	503	
3	0	0	0	0	502	
4	0	0	0	0	501	
5	0	0	0	0	497	
6	0	0	0	0	497	
7	0	0	0	0	495	
8	0	0	0	0	493	
9	0	0	0	0	494	
10	0	0	0	0	493	
11	0	0	0	0	492	
12	0	0	0	0	492	
13	0	0	0	0	492	
14	0	0	0	0	494	
15	0	0	0	0	493	
0	0	0	0	0	492	
1	0	0	0	0	496	
2	0	0	0	0	501	
3	0	0	0	0	504	
4	0	0	0	0	508	
5	0	0	0	0	505	
6	0	0	0	0	498	
7	0	0	0	0	495	
8	0	0	0	0	494	
9	0	0	0	0	494	
10	0	0	0	0	496	
11	0	0	0	0	498	
12	0	0	0	0	496	
13	0	0	0	0	497	
14	0	0	0	0	501	
15	0	0	0	0	503	
0	0	0	0	0	500	
1	0	0	0	0	496	
2	0	0	0	0	495	
3	0	0	0	0	499	
4	0	0	0	0	504	
5	0	0	0	0	504	
6	0	0	0	0	504	
7	0	0	0	0	503	
8	0	0	0	0	503	
9	0	0	0	0	503	
10	0	0	0	0	501	
11	0	0	0	0	501	
12	0	0	0	0	502	
13	0	0	0	0	501	
14	0	0	0	0	502	
15	0	0	0	0	505	
0	0	0	0	0	510	
1	0	0	0	0	513	
2	0	0	0	0	510	
3	0	0	0	0	504	
4	0	0	0	0	500	
5	0	0	0	0	500	
6	0	0	0	0	504	
7	0	0	0	0	510	
8	0	0	0	0	510	
9	0	0	0	0	512	
10	0	0	0	0	513	
11	0	0	0	0	501	
12	0	0	0	0	491	
13	0	0	0	0	497	
14	0	0	0	0	510	
15	0	0	0	0	513	
0	0	0	0	0	510	
1	0	0	0	0	510	
2	0	0	0	0	511	
3	0	0	0	0	509	
4	0	0	0	0	505	
5	0	0	0	0	502	
6	0	0	0	0	501	
7	0	0	0	0	501	
8	0	0	0	0	501	
9	0	0	0	0	499	
10	0	0	0	0	497	
11	0	0	0	0	496	
12	0	0	0	0	500	
13	0	0	0	0	503	
14	0	0	0	0	505	
15	0	0	0	0	500	
0	0	0	0	0	500	
1	0	0	0	0	499	
2	0	0	0	0	503	
3	0	0	0	0	506	
4	0	0	0	0	505	
5	0	0	0	0	505	
6	0	0	0	0	505	
7	0	0	0	0	505	
8	0	0	0	0	506	
9	0	0	0	0	506	
10	0	0	0	0	505	
11	0	0	0	0	505	
12	0	0	0	0	504	
13	0	0	0	0	502	
14	0	0	0	0	501	
15	0	0	0	0	499	
0	0	0	0	0	497	
1	0	0	0	0	499	
2	0	0	0	0	506	
3	0	0	0	0	512	
4	0	0	0	0	511	
5	0	0	0	0	511	
6	0	0	0	0	513	
7	0	0	0	0	514	
8	0	0	0	0	512	
9	0	0	0	0	511	
10	0	0	0	0	511	
11	0	0	0	0	511	
12	0	0	0	0	512	
13	0	0	0	0	510	
14	0	0	0	0	508	
15	0	0	0	0	503	
0	0	0	0	0	499	
1	0	0	0	0	501	
2	0	0	0	0	500	
3	0	0	0	0	504	
4	0	0	0	0	506	
5	0	0	0	0	510	
6	0	0	0	0	511	
7	0	0	0	0	509	
8	0	0	0	0	507	
9	0	0	0	0	505	
10	0	0	0	0	506	
11	0	0	0	0	509	
12	0	0	0	0	514	
13	0	0	0	0	520	
14	0	0	0	0	524	
15	0	0	0	0	521	
0	0	0	0	0	518	
1	0	0	0	0	510	
2	0	0	0	0	504	
3	0	0	0	0	506	
4	0	0	0	0	512	
5	0	0	0	0	517	
6	0	0	0	0	515	
7	0	0	0	0	510	
8	0	0	0	0	506	
9	0	0	0	0	509	
10	0	0	0	0	519	
11	0	0	0	0	524	
12	0	0	0	0	526	
13	0	0	0	0	524	
14	0	0	0	0	514	
15	0	0	0	0	507	
0	0	0	0	0	511	
1	0	0	0	0	521	
2	0	0	0	0	524	
3	0	0	0	0	518	
4	0	0	0	0	511	
5	0	0	0	0	510	
6	0	0	0	0	510	
7	0	0	0	0	509	
8	0	0	0	0	506	
9	0	0	0	0	506	
10	0	0	0	0	512	
11	0	0	0	0	515	
12	0	0	0	0	511	
13	0	0	0	0	508	
14	0	0	0	0	507	
15	0	0	0	0	502	
0	0	0	0	0	499	
1	0	0	0	0	500	
2	0	0	0	0	500	
3	0	0	0	0	503	
4	0	0	0	0	506	
5	0	0	0	0	510	
6	0	0	0	0	510	
7	0	0	0	0	509	
8	0	0	0	0	510	
9	0	0	0	0	512	
10	0	0	0	0	512	
11	0	0	0	0	512	
12	0	0	0	0	510	
13	0	0	0	0	511	
14	0	0	0	0	509	
15	0	0	0	0	506	
0	0	0	0	0	507	
1	0	0	0	0	507	
2	0	0	0	0	506	
3	0	0	0	0	502	
4	0	0	0	0	503	
5	0	0	0	0	504	
6	0	0	0	0	504	
7	0	0	0	0	504	
8	0	0	0	0	507	
9	0	0	0	0	510	
10	0	0	0	0	512	
11	0	0	0	0	514	
12	0	0	0	0	516	
13	0	0	0	0	517	
14	0	0	0	0	517	
15	0	0	0	0	515	
0	0	0	0	0	513	
1	0	0	0	0	513	
2	0	0	0	0	514	
3	0	0	0	0	512	
4	0	0	0	0	507	
5	0	0	0	0	510	
6	0	0	0	0	512	
7	0	0	0	0	517	
8	0	0	0	0	519	
9	0	0	0	0	517	
10	0	0	0	0	513	
11	0	0	0	0	513	
12	0	0	0	0	511	
13	0	0	0	0	500	
14	0	0	0	0	494	
15	0	0	0	0	498	
0	0	0	0	0	509	
1	0	0	0	0	516	
2	0	0	0	0	514	
3	0	0	0	0	508	
4	0	0	0	0	504	
5	0	0	0	0	506	
6	0	0	0	0	506	
7	0	0	0	0	509	
8	0	0	0	0	514	
9	0	0	0	0	515	
10	0	0	0	0	517	
11	0	0	0	0	514	
12	0	0	0	0	509	
13	0	0	0	0	510	
14	0	0	0	0	510	
15	0	0	0	0	507	
0	0	0	0	0	505	
1	0	0	0	0	507	
2	0	0	0	0	508	
3	0	0	0	0	510	
4	0	0	0	0	515	
5	0	0	0	0	524	
6	0	0	0	0	527	
7	0	0	0	0	523	
8	0	0	0	0	516	
9	0	0	0	0	515	
10	0	0	0	0	514	
11	0	0	0	0	515	
12	0	0	0	0	516	
13	0	0	0	0	516	
14	0	0	0	0	512	
15	0	0	0	0	508	
0	0	0	0	0	512	
1	0	0	0	0	515	
2	0	0	0	0	515	
3	0	0	0	0	515	
4	0	0	0	0	511	
5	0	0	0	0	508	
6	0	0	0	0	505	
7	0	0	0	0	504	
8	0	0	0	0	506	
9	0	0	0	0	509	
10	0	0	0	0	515	
11	0	0	0	0	516	
12	0	0	0	0	515	
13	0	0	0	0	513	
14	0	0	0	0	511	
15	0	0	0	0	512	
0	0	0	0	0	509	
1	0	0	0	0	506	
2	0	0	0	0	507	
3	0	0	0	0	507	
4	0	0	0	0	510	
5	0	0	0	0	511	
6	0	0	0	0	509	
7	0	0	0	0	512	
8	0	0	0	0	512	
9	0	0	0	0	512	
10	0	0	0	0	511	
11	0	0	0	0	507	
12	0	0	0	0	504	
13	0	0	0	0	508	
14	0	0	0	0	516	
15	0	0	0	0	519	
0	0	0	0	0	516	
1	0	0	0	0	513	
2	0	0	0	0	513	
3	0	0	0	0	511	
4	0	0	0	0	507	
5	0	0	0	0	506	
6	0	0	0	0	505	
7	0	0	0	0	509	
8	0	0	0	0	519	
9	0	0	0	0	522	
10	0	0	0	0	522	
11	0	0	0	0	519	
12	0	0	0	0	514	
13	0	0	0	0	515	
14	0	0	0	0	510	
15	0	0	0	0	507	
0	0	0	0	0	511	
1	0	0	0	0	518	
2	0	0	0	0	516	
3	0	0	0	0	519	
4	0	0	0	0	524	
5	0	0	0	0	527	
6	0	0	0	0	527	
7	0	0	0	0	531	
8	0	0	0	0	527	
9	0	0	0	0	524	
10	0	0	0	0	524	
11	0	0	0	0	526	
12	0	0	0	0	529	
13	0	0	0	0	530	
14	0	0	0	0	528	
15	0	0	0	0	524	
0	0	0	0	0	519	
1	0	0	0	0	515	
2	0	0	0	0	513	
3	0	0	0	0	512	
4	0	0	0	0	515	
5	0	0	0	0	518	
6	0	0	0	0	518	
7	0	0	0	0	516	
8	0	0	0	0	516	
9	0	0	0	0	522	
10	0	0	0	0	529	
11	0	0	0	0	537	
12	0	0	0	0	542	
13	0	0	0	0	540	
14	0	0	0	0	534	
15	0	0	0	0	531	
0	0	0	0	0	534	
1	0	0	0	0	539	
2	0	0	0	0	538	
3	0	0	0	0	534	
4	0	0	0	0	531	
5	0	0	0	0	528	
6	0	0	0	0	527	
7	0	0	0	0	523	
8	0	0	0	0	516	
9	0	0	0	0	515	
10	0	0	0	0	515	
11	0	0	0	0	512	
12	0	0	0	0	512	
13	0	0	0	0	511	
14	0	0	0	0	510	
15	0	0	0	0	510	
0	0	0	0	0	512	
1	0	0	0	0	511	
2	0	0	0	0	505	
3	0	0	0	0	501	
4	0	0	0	0	502	
5	0	0	0	0	505	
6	0	0	0	0	507	
7	0	0	0	0	506	
8	0	0	0	0	502	
9	0	0	0	0	500	
10	0	0	0	0	501	
11	0	0	0	0	503	
12	0	0	0	0	503	
13	0	0	0	0	504	
14	0	0	0	0	506	
15	0	0	0	0	507	
0	0	0	0	0	508	
1	0	0	0	0	504	
2	0	0	0	0	495	
3	0	0	0	0	487	
4	0	0	0	0	490	
5	0	0	0	0	500	
6	0	0	0	0	508	
7	0	0	0	0	510	
8	0	0	0	0	509	
9	0	0	0	0	510	
10	0	0	0	0	509	
11	0	0	0	0	507	
12	0	0	0	0	503	
13	0	0	0	0	500	
14	0	0	0	0	498	
15	0	0	0	0	499	
0	0	0	0	0	504	
1	0	0	0	0	509	
2	0	0	0	0	515	
3	0	0	0	0	514	
4	0	0	0	0	515	
5	0	0	0	0	520	
6	0	0	0	0	520	
7	0	0	0	0	514	
8	0	0	0	0	511	
9	0	0	0	0	510	
10	0	0	0	0	509	
11	0	0	0	0	508	
12	0	0	0	0	507	
13	0	0	0	0	504	
14	0	0	0	0	505	
15	0	0	0	0	508	
0	0	0	0	0	512	
1	0	0	0	0	517	
2	0	0	0	0	519	
3	0	0	0	0	521	
4	0	0	0	0	527	
5	0	0	0	0	520	
6	0	0	0	0	509	
7	0	0	0	0	502	
8	0	0	0	0	500	
9	0	0	0	0	499	
10	0	0	0	0	497	
11	0	0	0	0	496	
12	0	0	0	0	497	
13	0	0	0	0	499	
14	0	0	0	0	499	
15	0	0	0	0	499	
0	0	0	0	0	500	
1	0	0	0	0	505	
2	0	0	0	0	511	
3	0	0	0	0	512	
4	0	0	0	0	513	
5	0	0	0	0	512	
6	0	0	0	0	515	
7	0	0	0	0	520	
8	0	0	0	0	530	
9	0	0	0	0	538	
10	0	0	0	0	547	
11	0	0	0	0	555	
12	0	0	0	0	562	
13	0	0	0	0	577	
14	0	0	0	0	591	
15	0	0	0	0	606	
0	0	0	0	0	621	
1	0	0	0	0	633	
2	0	0	0	0	643	
3	0	0	0	0	655	
4	0	0	0	0	667	
5	0	0	0	0	676	
6	0	0	0	0	680	
7	0	0	0	0	683	
8	0	0	0	0	682	
9	0	0	0	0	672	
10	0	0	0	0	667	
11	0	0	0	0	662	
12	0	0	0	0	658	
13	0	0	0	0	652	
14	0	0	0	0	650	
15	0	0	0	0	649	
0	0	0	0	0	637	
1	0	0	0	0	621	
2	0	0	0	0	603	
3	0	0	0	0	585	
4	0	0	0	0	561	
5	0	0	0	0	541	
6	0	0	0	0	532	
7	0	0	0	0	527	
8	0	0	0	0	514	
9	0	0	0	0	494	
10	0	0	0	0	474	
11	0	0	0	0	459	
12	0	0	0	0	454	
13	0	0	0	0	455	
14	0	0	0	0	456	
15	0	0	0	0	457	
0	0	0	0	0	458	
1	0	0	0	0	457	
2	0	0	0	0	458	
3	0	0	0	0	465	
4	0	0	0	0	473	
5	0	0	0	0	476	
6	0	0	0	0	471	
7	0	0	0	0	470	
8	0	0	0	0	470	
9	0	0	0	0	470	
10	0	0	0	0	467	
11	0	0	0	0	465	
12	0	0	0	0	466	
13	0	0	0	0	465	
14	0	0	0	0	465	
15	0	0	0	0	467	
0	0	0	0	0	466	
1	0	0	0	0	465	
2	0	0	0	0	468	
3	0	0	0	0	474	
4	0	0	0	0	482	
5	0	0	0	0	488	
6	0	0	0	0	490	
7	0	0	0	0	488	
8	0	0	0	0	485	
9	0	0	0	0	482	
10	0	0	0	0	481	
11	0	0	0	0	479	
12	0	0	0	0	484	
13	0	0	0	0	491	
14	0	0	0	0	493	
15	0	0	0	0	490	
0	0	0	0	0	487	
1	0	0	0	0	485	
2	0	0	0	0	487	
3	0	0	0	0	489	
4	0	0	0	0	488	
5	0	0	0	0	488	
6	0	0	0	0	487	
7	0	0	0	0	483	
8	0	0	0	0	483	
9	0	0	0	0	485	
10	0	0	0	0	488	
11	0	0	0	0	489	
12	0	0	0	0	487	
13	0	0	0	0	481	
14	0	0	0	0	478	
15	0	0	0	0	479	
0	0	0	0	0	483	
1	0	0	0	0	492	
2	0	0	0	0	496	
3	0	0	0	0	497	
4	0	0	0	0	497	
5	0	0	0	0	494	
6	0	0	0	0	491	
7	0	0	0	0	491	
8	0	0	0	0	491	
9	0	0	0	0	492	
10	0	0	0	0	492	
11	0	0	0	0	492	
12	0	0	0	0	492	
13	0	0	0	0	494	
14	0	0	0	0	494	
15	0	0	0	0	491	
0	0	0	0	0	492	
1	0	0	0	0	494	
2	0	0	0	0	494	
3	0	0	0	0	494	
4	0	0	0	0	496	
5	0	0	0	0	497	
6	0	0	0	0	499	
7	0	0	0	0	500	
8	0	0	0	0	502	
9	0	0	0	0	500	
10	0	0	0	0	495	
11	0	0	0	0	495	
12	0	0	0	0	492	
13	0	0	0	0	490	
14	0	0	0	0	487	
15	0	0	0	0	485	
0	0	0	0	0	490	
1	0	0	0	0	497	
2	0	0	0	0	500	
3	0	0	0	0	502	
4	0	0	0	0	498	
5	0	0	0	0	493	
6	0	0	0	0	490	
7	0	0	0	0	492	
8	0	0	0	0	502	
9	0	0	0	0	507	
10	0	0	0	0	508	
11	0	0	0	0	511	
12	0	0	0	0	512	
13	0	0	0	0	512	
14	0	0	0	0	509	
15	0	0	0	0	503	
0	0	0	0	0	500	
1	0	0	0	0	502	
2	0	0	0	0	506	
3	0	0	0	0	508	
4	0	0	0	0	511	
5	0	0	0	0	513	
6	0	0	0	0	514	
7	0	0	0	0	513	
8	0	0	0	0	511	
9	0	0	0	0	513	
10	0	0	0	0	514	
11	0	0	0	0	513	
12	0	0	0	0	511	
13	0	0	0	0	507	
14	0	0	0	0	502	
15	0	0	0	0	498	
0	0	0	0	0	498	
1	0	0	0	0	501	
2	0	0	0	0	505	
3	0	0	0	0	509	
4	0	0	0	0	511	
5	0	0	0	0	513	
6	0	0	0	0	512	
7	0	0	0	0	509	
8	0	0	0	0	506	
9	0	0	0	0	504	
10	0	0	0	0	504	
11	0	0	0	0	505	
12	0	0	0	0	507	
13	0	0	0	0	511	
14	0	0	0	0	516	
15	0	0	0	0	518	
0	0	0	0	0	518	
1	0	0	0	0	515	
2	0	0	0	0	508	
3	0	0	0	0	504	
4	0	0	0	0	504	
5	0	0	0	0	509	
6	0	0	0	0	514	
7	0	0	0	0	518	
8	0	0	0	0	516	
9	0	0	0	0	512	
10	0	0	0	0	510	
11	0	0	0	0	511	
12	0	0	0	0	515	
13	0	0	0	0	515	
14	0	0	0	0	514	
15	0	0	0	0	514	
0	0	0	0	0	516	
1	0	0	0	0	518	
2	0	0	0	0	519	
3	0	0	0	0	518	
4	0	0	0	0	515	
5	0	0	0	0	516	
6	0	0	0	0	514	
7	0	0	0	0	513	
8	0	0	0	0	514	
9	0	0	0	0	518	
10	0	0	0	0	523	
11	0	0	0	0	526	
12	0	0	0	0	526	
13	0	0	0	0	524	
14	0	0	0	0	521	
15	0	0	0	0	516	
0	0	0	0	0	514	
1	0	0	0	0	514	
2	0	0	0	0	511	
3	0	0	0	0	507	
4	0	0	0	0	506	
5	0	0	0	0	513	
6	0	0	0	0	517	
7	0	0	0	0	520	
8	0	0	0	0	523	
9	0	0	0	0	524	
10	0	0	0	0	522	
11	0	0	0	0	523	
12	0	0	0	0	527	
13	0	0	0	0	527	
14	0	0	0	0	524	
15	0	0	0	0	525	
0	0	0	0	0	527	
1	0	0	0	0	529	
2	0	0	0	0	526	
3	0	0	0	0	524	
4	0	0	0	0	524	
5	0	0	0	0	524	
6	0	0	0	0	524	
7	0	0	0	0	522	
8	0	0	0	0	521	
9	0	0	0	0	519	
10	0	0	0	0	520	
11	0	0	0	0	527	
12	0	0	0	0	537	
13	0	0	0	0	540	
14	0	0	0	0	540	
15	0	0	0	0	539	
0	0	0	0	0	536	
1	0	0	0	0	529	
2	0	0	0	0	524	
3	0	0	0	0	518	
4	0	0	0	0	513	
5	0	0	0	0	514	
6	0	0	0	0	520	
7	0	0	0	0	526	
8	0	0	0	0	531	
9	0	0	0	0	542	
10	0	0	0	0	546	
11	0	0	0	0	540	
12	0	0	0	0	534	
13	0	0	0	0	528	
14	0	0	0	0	529	
15	0	0	0	0	530	
0	0	0	0	0	527	
1	0	0	0	0	523	
2	0	0	0	0	519	
3	0	0	0	0	517	
4	0	0	0	0	514	
5	0	0	0	0	514	
6	0	0	0	0	516	
7	0	0	0	0	514	
8	0	0	0	0	512	
9	0	0	0	0	512	
10	0	0	0	0	510	
11	0	0	0	0	507	
12	0	0	0	0	502	
13	0	0	0	0	502	
14	0	0	0	0	510	
15	0	0	0	0	515	
0	0	0	0	0	518	
1	0	0	0	0	516	
2	0	0	0	0	511	
3	0	0	0	0	508	
4	0	0	0	0	506	
5	0	0	0	0	504	
6	0	0	0	0	502	
7	0	0	0	0	500	
8	0	0	0	0	499	
9	0	0	0	0	494	
10	0	0	0	0	493	
11	0	0	0	0	495	
12	0	0	0	0	500	
13	0	0	0	0	503	
14	0	0	0	0	504	
15	0	0	0	0	499	
0	0	0	0	0	492	
1	0	0	0	0	490	
2	0	0	0	0	488	
3	0	0	0	0	485	
4	0	0	0	0	483	
5	0	0	0	0	481	
6	0	0	0	0	482	
7	0	0	0	0	484	
8	0	0	0	0	485	
9	0	0	0	0	484	
10	0	0	0	0	480	
11	0	0	0	0	480	
12	0	0	0	0	485	
13	0	0	0	0	495	
14	0	0	0	0	503	
15	0	0	0	0	504	
0	0	0	0	0	502	
1	0	0	0	0	500	
2	0	0	0	0	497	
3	0	0	0	0	498	
4	0	0	0	0	498	
5	0	0	0	0	497	
6	0	0	0	0	498	
7	0	0	0	0	495	
8	0	0	0	0	489	
9	0	0	0	0	486	
10	0	0	0	0	488	
11	0	0	0	0	491	
12	0	0	0	0	492	
13	0	0	0	0	492	
14	0	0	0	0	492	
15	0	0	0	0	492	
0	0	0	0	0	494	
1	0	0	0	0	498	
2	0	0	0	0	498	
3	0	0	0	0	494	
4	0	0	0	0	492	
5	0	0	0	0	488	
6	0	0	0	0	485	
7	0	0	0	0	483	
8	0	0	0	0	484	
9	0	0	0	0	487	
10	0	0	0	0	489	
11	0	0	0	0	493	
12	0	0	0	0	500	
13	0	0	0	0	501	
14	0	0	0	0	495	
15	0	0	0	0	493	
0	0	0	0	0	497	
1	0	0	0	0	503	
2	0	0	0	0	504	
3	0	0	0	0	504	
4	0	0	0	0	500	
5	0	0	0	0	496	
6	0	0	0	0	496	
7	0	0	0	0	495	
8	0	0	0	0	494	
9	0	0	0	0	498	
10	0	0	0	0	499	
11	0	0	0	0	495	
12	0	0	0	0	492	
13	0	0	0	0	495	
14	0	0	0	0	497	
15	0	0	0	0	497	
0	0	0	0	0	500	
1	0	0	0	0	500	
2	0	0	0	0	496	
3	0	0	0	0	491	
4	0	0	0	0	491	
5	0	0	0	0	492	
6	0	0	0	0	495	
7	0	0	0	0	497	
8	0	0	0	0	497	
9	0	0	0	0	496	
10	0	0	0	0	491	
11	0	0	0	0	490	
12	0	0	0	0	491	
13	0	0	0	0	491	
14	0	0	0	0	492	
15	0	0	0	0	493	
0	0	0	0	0	487	
1	0	0	0	0	482	
2	0	0	0	0	487	
3	0	0	0	0	500	
4	0	0	0	0	508	
5	0	0	0	0	511	
6	0	0	0	0	510	
7	0	0	0	0	509	
8	0	0	0	0	510	
9	0	0	0	0	513	
10	0	0	0	0	513	
11	0	0	0	0	509	
12	0	0	0	0	507	
13	0	0	0	0	503	
14	0	0	0	0	501	
15	0	0	0	0	502	
0	0	0	0	0	505	
1	0	0	0	0	507	
2	0	0	0	0	508	
3	0	0	0	0	505	
4	0	0	0	0	503	
5	0	0	0	0	503	
6	0	0	0	0	504	
7	0	0	0	0	502	
8	0	0	0	0	500	
9	0	0	0	0	500	
10	0	0	0	0	501	
11	0	0	0	0	501	
12	0	0	0	0	502	
13	0	0	0	0	503	
14	0	0	0	0	506	
15	0	0	0	0	507	
0	0	0	0	0	508	
1	0	0	0	0	508	
2	0	0	0	0	507	
3	0	0	0	0	506	
4	0	0	0	0	499	
5	0	0	0	0	495	
6	0	0	0	0	498	
7	0	0	0	0	507	
8	0	0	0	0	508	
9	0	0	0	0	509	
10	0	0	0	0	511	
11	0	0	0	0	507	
12	0	0	0	0	501	
13	0	0	0	0	499	
14	0	0	0	0	503	
15	0	0	0	0	511	
0	0	0	0	0	515	
1	0	0	0	0	512	
2	0	0	0	0	510	
3	0	0	0	0	508	
4	0	0	0	0	504	
5	0	0	0	0	502	
6	0	0	0	0	502	
7	0	0	0	0	509	
8	0	0	0	0	513	
9	0	0	0	0	518	
10	0	0	0	0	516	
11	0	0	0	0	513	
12	0	0	0	0	509	
13	0	0	0	0	505	
14	0	0	0	0	504	
15	0	0	0	0	501	
0	0	0	0	0	491	
1	0	0	0	0	489	
2	0	0	0	0	496	
3	0	0	0	0	507	
4	0	0	0	0	513	
5	0	0	0	0	516	
6	0	0	0	0	515	
7	0	0	0	0	513	
8	0	0	0	0	511	
9	0	0	0	0	507	
10	0	0	0	0	505	
11	0	0	0	0	505	
12	0	0	0	0	505	
13	0	0	0	0	503	
14	0	0	0	0	505	
15	0	0	0	0	510	
0	0	0	0	0	511	
1	0	0	0	0	510	
2	0	0	0	0	512	
3	0	0	0	0	512	
4	0	0	0	0	512	
5	0	0	0	0	512	
6	0	0	0	0	508	
7	0	0	0	0	505	
8	0	0	0	0	505	
9	0	0	0	0	507	
10	0	0	0	0	512	
11	0	0	0	0	518	
12	0	0	0	0	518	
13	0	0	0	0	512	
14	0	0	0	0	508	
15	0	0	0	0	509	
0	0	0	0	0	509	
1	0	0	0	0	508	
2	0	0	0	0	508	
3	0	0	0	0	509	
4	0	0	0	0	509	
5	0	0	0	0	510	
6	0	0	0	0	513	
7	0	0	0	0	511	
8	0	0	0	0	509	
9	0	0	0	0	505	
10	0	0	0	0	502	
11	0	0	0	0	500	
12	0	0	0	0	500	
13	0	0	0	0	503	
14	0	0	0	0	505	
15	0	0	0	0	508	
0	0	0	0	0	510	
1	0	0	0	0	511	
2	0	0	0	0	511	
3	0	0	0	0	513	
4	0	0	0	0	513	
5	0	0	0	0	513	
6	0	0	0	0	514	
7	0	0	0	0	513	
8	0	0	0	0	511	
9	0	0	0	0	509	
10	0	0	0	0	509	
11	0	0	0	0	508	
12	0	0	0	0	504	
13	0	0	0	0	505	
14	0	0	0	0	512	
15	0	0	0	0	516	
0	0	0	0	0	512	
1	0	0	0	0	508	
2	0	0	0	0	510	
3	0	0	0	0	518	
4	0	0	0	0	520	
5	0	0	0	0	517	
6	0	0	0	0	513	
7	0	0	0	0	509	
8	0	0	0	0	506	
9	0	0	0	0	505	
10	0	0	0	0	506	
11	0	0	0	0	507	
12	0	0	0	0	506	
13	0	0	0	0	507	
14	0	0	0	0	514	
15	0	0	0	0	516	
0	0	0	0	0	509	
1	0	0	0	0	507	
2	0	0	0	0	507	
3	0	0	0	0	512	
4	0	0	0	0	520	
5	0	0	0	0	526	
6	0	0	0	0	523	
7	0	0	0	0	520	
8	0	0	0	0	519	
9	0	0	0	0	515	
10	0	0	0	0	510	
11	0	0	0	0	507	
12	0	0	0	0	507	
13	0	0	0	0	507	
14	0	0	0	0	506	
15	0	0	0	0	505	
0	0	0	0	0	502	
1	0	0	0	0	501	
2	0	0	0	0	504	
3	0	0	0	0	507	
4	0	0	0	0	509	
5	0	0	0	0	515	
6	0	0	0	0	519	
7	0	0	0	0	518	
8	0	0	0	0	513	
9	0	0	0	0	512	
10	0	0	0	0	512	
11	0	0	0	0	510	
12	0	0	0	0	505	
13	0	0	0	0	498	
14	0	0	0	0	493	
15	0	0	0	0	494	
0	0	0	0	0	500	
1	0	0	0	0	504	
2	0	0	0	0	505	
3	0	0	0	0	510	
4	0	0	0	0	513	
5	0	0	0	0	514	
6	0	0	0	0	514	
7	0	0	0	0	516	
8	0	0	0	0	519	
9	0	0	0	0	518	
10	0	0	0	0	513	
11	0	0	0	0	510	
12	0	0	0	0	509	
13	0	0	0	0	510	
14	0	0	0	0	508	
15	0	0	0	0	507	
0	0	0	0	0	505	
1	0	0	0	0	500	
2	0	0	0	0	498	
3	0	0	0	0	501	
4	0	0	0	0	505	
5	0	0	0	0	508	
6	0	0	0	0	509	
7	0	0	0	0	509	
8	0	0	0	0	507	
9	0	0	0	0	510	
10	0	0	0	0	516	
11	0	0	0	0	521	
12	0	0	0	0	524	
13	0	0	0	0	521	
14	0	0	0	0	516	
15	0	0	0	0	515	
0	0	0	0	0	519	
1	0	0	0	0	520	
2	0	0	0	0	519	
3	0	0	0	0	512	
4	0	0	0	0	509	
5	0	0	0	0	506	
6	0	0	0	0	506	
7	0	0	0	0	503	
8	0	0	0	0	508	
9	0	0	0	0	518	
10	0	0	0	0	527	
11	0	0	0	0	525	
12	0	0	0	0	518	
13	0	0	0	0	513	
14	0	0	0	0	515	
15	0	0	0	0	514	
0	0	0	0	0	511	
1	0	0	0	0	511	
2	0	0	0	0	515	
3	0	0	0	0	518	
4	0	0	0	0	514	
5	0	0	0	0	508	
6	0	0	0	0	503	
7	0	0	0	0	504	
8	0	0	0	0	509	
9	0	0	0	0	512	
10	0	0	0	0	516	
11	0	0	0	0	520	
12	0	0	0	0	522	
13	0	0	0	0	520	
14	0	0	0	0	515	
15	0	0	0	0	511	
0	0	0	0	0	507	
1	0	0	0	0	505	
2	0	0	0	0	505	
3	0	0	0	0	505	
4	0	0	0	0	505	
5	0	0	0	0	506	
6	0	0	0	0	504	
7	0	0	0	0	504	
8	0	0	0	0	506	
9	0	0	0	0	512	
10	0	0	0	0	518	
11	0	0	0	0	519	
12	0	0	0	0	521	
13	0	0	0	0	522	
14	0	0	0	0	518	
15	0	0	0	0	515	
0	0	0	0	0	513	
1	0	0	0	0	513	
2	0	0	0	0	509	
3	0	0	0	0	510	
4	0	0	0	0	510	
5	0	0	0	0	508	
6	0	0	0	0	507	
7	0	0	0	0	506	
8	0	0	0	0	509	
9	0	0	0	0	516	
10	0	0	0	0	521	
11	0	0	0	0	521	
12	0	0	0	0	517	
13	0	0	0	0	513	
14	0	0	0	0	510	
15	0	0	0	0	505	
0	0	0	0	0	504	
1	0	0	0	0	503	
2	0	0	0	0	505	
3	0	0	0	0	511	
4	0	0	0	0	512	
5	0	0	0	0	508	
6	0	0	0	0	510	
7	0	0	0	0	515	
8	0	0	0	0	523	
9	0	0	0	0	527	
10	0	0	0	0	529	
11	0	0	0	0	524	
12	0	0	0	0	520	
13	0	0	0	0	523	
14	0	0	0	0	526	
15	0	0	0	0	525	
0	0	0	0	0	522	
1	0	0	0	0	516	
2	0	0	0	0	509	
3	0	0	0	0	504	
4	0	0	0	0	504	
5	0	0	0	0	501	
6	0	0	0	0	504	
7	0	0	0	0	514	
8	0	0	0	0	520	
9	0	0	0	0	522	
10	0	0	0	0	520	
11	0	0	0	0	519	
12	0	0	0	0	521	
13	0	0	0	0	521	
14	0	0	0	0	522	
15	0	0	0	0	521	
0	0	0	0	0	521	
1	0	0	0	0	522	
2	0	0	0	0	521	
3	0	0	0	0	523	
4	0	0	0	0	521	
5	0	0	0	0	516	
6	0	0	0	0	519	
7	0	0	0	0	519	
8	0	0	0	0	519	
9	0	0	0	0	519	
10	0	0	0	0	521	
11	0	0	0	0	519	
12	0	0	0	0	519	
13	0	0	0	0	521	
14	0	0	0	0	521	
15	0	0	0	0	518	
0	0	0	0	0	515	
1	0	0	0	0	515	
2	0	0	0	0	521	
3	0	0	0	0	527	
4	0	0	0	0	527	
5	0	0	0	0	525	
6	0	0	0	0	526	
7	0	0	0	0	533	
8	0	0	0	0	531	
9	0	0	0	0	527	
10	0	0	0	0	524	
11	0	0	0	0	525	
12	0	0	0	0	528	
13	0	0	0	0	529	
14	0	0	0	0	528	
15	0	0	0	0	526	
0	0	0	0	0	524	
1	0	0	0	0	523	
2	0	0	0	0	519	
3	0	0	0	0	508	
4	0	0	0	0	505	
5	0	0	0	0	509	
6	0	0	0	0	514	
7	0	0	0	0	513	
8	0	0	0	0	511	
9	0	0	0	0	510	
10	0	0	0	0	513	
11	0	0	0	0	515	
12	0	0	0	0	515	
13	0	0	0	0	517	
14	0	0	0	0	516	
15	0	0	0	0	514	
0	0	0	0	0	512	
1	0	0	0	0	511	
2	0	0	0	0	510	
3	0	0	0	0	513	
4	0	0	0	0	512	
5	0	0	0	0	508	
6	0	0	0	0	501	
7	0	0	0	0	494	
8	0	0	0	0	493	
9	0	0	0	0	493	
10	0	0	0	0	496	
11	0	0	0	0	498	
12	0	0	0	0	498	
13	0	0	0	0	502	
14	0	0	0	0	505	
15	0	0	0	0	506	
0	0	0	0	0	506	
1	0	0	0	0	506	
2	0	0	0	0	508	
3	0	0	0	0	510	
4	0	0	0	0	507	
5	0	0	0	0	503	
6	0	0	0	0	501	
7	0	0	0	0	499	
8	0	0	0	0	498	
9	0	0	0	0	497	
10	0	0	0	0	496	
11	0	0	0	0	494	
12	0	0	0	0	496	
13	0	0	0	0	501	
14	0	0	0	0	506	
15	0	0	0	0	513	
0	0	0	0	0	515	
1	0	0	0	0	514	
2	0	0	0	0	513	
3	0	0	0	0	518	
4	0	0	0	0	519	
5	0	0	0	0	513	
6	0	0	0	0	505	
7	0	0	0	0	501	
8	0	0	0	0	499	
9	0	0	0	0	506	
10	0	0	0	0	508	
11	0	0	0	0	505	
12	0	0	0	0	503	
13	0	0	0	0	500	
14	0	0	0	0	496	
15	0	0	0	0	496	
0	0	0	0	0	496	
1	0	0	0	0	495	
2	0	0	0	0	497	
3	0	0	0	0	502	
4	0	0	0	0	504	
5	0	0	0	0	507	
6	0	0	0	0	501	
7	0	0	0	0	495	
8	0	0	0	0	491	
9	0	0	0	0	490	
10	0	0	0	0	491	
11	0	0	0	0	493	
12	0	0	0	0	496	
13	0	0	0	0	502	
14	0	0	0	0	514	
15	0	0	0	0	528	
0	0	0	0	0	543	
1	0	0	0	0	559	
2	0	0	0	0	573	
3	0	0	0	0	585	
4	0	0	0	0	594	
5	0	0	0	0	603	
6	0	0	0	0	610	
7	0	0	0	0	616	
8	0	0	0	0	622	
9	0	0	0	0	626	
10	0	0	0	0	627	
11	0	0	0	0	633	
12	0	0	0	0	644	
13	0	0	0	0	657	
14	0	0	0	0	668	
15	0	0	0	0	676	
0	0	0	0	0	679	
1	0	0	0	0	677	
2	0	0	0	0	668	
3	0	0	0	0	663	
4	0	0	0	0	658	
5	0	0	0	0	651	
6	0	0	0	0	641	
7	0	0	0	0	624	
8	0	0	0	0	610	
9	0	0	0	0	599	
10	0	0	0	0	588	
11	0	0	0	0	569	
12	0	0	0	0	549	
13	0	0	0	0	539	
14	0	0	0	0	527	
15	0	0	0	0	510	
0	0	0	0	0	493	
1	0	0	0	0	481	
2	0	0	0	0	469	
3	0	0	0	0	461	
4	0	0	0	0	458	
5	0	0	0	0	454	
6	0	0	0	0	452	
7	0	0	0	0	456	
8	0	0	0	0	462	
9	0	0	0	0	468	
10	0	0	0	0	465	
11	0	0	0	0	462	
12	0	0	0	0	459	
13	0	0	0	0	460	
14	0	0	0	0	464	
15	0	0	0	0	465	
0	0	0	0	0	464	
1	0	0	0	0	466	
2	0	0	0	0	472	
3	0	0	0	0	473	
4	0	0	0	0	472	
5	0	0	0	0	471	
6	0	0	0	0	471	
7	0	0	0	0	478	
8	0	0	0	0	483	
9	0	0	0	0	482	
10	0	0	0	0	480	
11	0	0	0	0	477	
12	0	0	0	0	477	
13	0	0	0	0	476	
14	0	0	0	0	477	
15	0	0	0	0	478	
0	0	0	0	0	478	
1	0	0	0	0	480	
2	0	0	0	0	481	
3	0	0	0	0	479	
4	0	0	0	0	478	
5	0	0	0	0	482	
6	0	0	0	0	488	
7	0	0	0	0	489	
8	0	0	0	0	488	
9	0	0	0	0	484	
10	0	0	0	0	478	
11	0	0	0	0	474	
12	0	0	0	0	473	
13	0	0	0	0	473	
14	0	0	0	0	475	
15	0	0	0	0	480	
0	0	0	0	0	488	
1	0	0	0	0	493	
2	0	0	0	0	494	
3	0	0	0	0	491	
4	0	0	0	0	490	
5	0	0	0	0	489	
6	0	0	0	0	488	
7	0	0	0	0	489	
8	0	0	0	0	491	
9	0	0	0	0	497	
10	0	0	0	0	500	
11	0	0	0	0	496	
12	0	0	0	0	491	
13	0	0	0	0	488	
14	0	0	0	0	486	
15	0	0	0	0	485	
0	0	0	0	0	488	
1	0	0	0	0	492	
2	0	0	0	0	498	
3	0	0	0	0	501	
4	0	0	0	0	499	
5	0	0	0	0	495	
6	0	0	0	0	496	
7	0	0	0	0	496	
8	0	0	0	0	487	
9	0	0	0	0	479	
10	0	0	0	0	483	
11	0	0	0	0	492	
12	0	0	0	0	498	
13	0	0	0	0	497	
14	0	0	0	0	495	
15	0	0	0	0	495	
0	0	0	0	0	497	
1	0	0	0	0	499	
2	0	0	0	0	502	
3	0	0	0	0	502	
4	0	0	0	0	499	
5	0	0	0	0	497	
6	0	0	0	0	498	
7	0	0	0	0	497	
8	0	0	0	0	498	
9	0	0	0	0	501	
10	0	0	0	0	504	
11	0	0	0	0	504	
12	0	0	0	0	504	
13	0	0	0	0	503	
14	0	0	0	0	502	
15	0	0	0	0	505	
0	0	0	0	0	509	
1	0	0	0	0	508	
2	0	0	0	0	507	
3	0	0	0	0	508	
4	0	0	0	0	510	
5	0	0	0	0	507	
6	0	0	0	0	503	
7	0	0	0	0	503	
8	0	0	0	0	504	
9	0	0	0	0	501	
10	0	0	0	0	499	
11	0	0	0	0	499	
12	0	0	0	0	499	
13	0	0	0	0	501	
14	0	0	0	0	504	
15	0	0	0	0	506	
0	0	0	0	0	506	
1	0	0	0	0	506	
2	0	0	0	0	509	
3	0	0	0	0	509	
4	0	0	0	0	508	
5	0	0	0	0	508	
6	0	0	0	0	508	
7	0	0	0	0	509	
8	0	0	0	0	509	
9	0	0	0	0	508	
10	0	0	0	0	507	
11	0	0	0	0	507	
12	0	0	0	0	508	
13	0	0	0	0	507	
14	0	0	0	0	505	
15	0	0	0	0	504	
0	0	0	0	0	502	
1	0	0	0	0	500	
2	0	0	0	0	499	
3	0	0	0	0	499	
4	0	0	0	0	504	
5	0	0	0	0	509	
6	0	0	0	0	511	
7	0	0	0	0	513	
8	0	0	0	0	513	
9	0	0	0	0	512	
10	0	0	0	0	505	
11	0	0	0	0	503	
12	0	0	0	0	504	
13	0	0	0	0	507	
14	0	0	0	0	509	
15	0	0	0	0	512	
0	0	0	0	0	515	
1	0	0	0	0	511	
2	0	0	0	0	507	
3	0	0	0	0	514	
4	0	0	0	0	521	
5	0	0	0	0	526	
6	0	0	0	0	529	
7	0	0	0	0	529	
8	0	0	0	0	528	
9	0	0	0	0	526	
10	0	0	0	0	521	
11	0	0	0	0	518	
12	0	0	0	0	519	
13	0	0	0	0	525	
14	0	0	0	0	528	
15	0	0	0	0	528	
0	0	0	0	0	526	
1	0	0	0	0	523	
2	0	0	0	0	516	
3	0	0	0	0	512	
4	0	0	0	0	511	
5	0	0	0	0	510	
6	0	0	0	0	508	
7	0	0	0	0	507	
8	0	0	0	0	517	
9	0	0	0	0	532	
10	0	0	0	0	540	
11	0	0	0	0	540	
12	0	0	0	0	539	
13	0	0	0	0	535	
14	0	0	0	0	532	
15	0	0	0	0	531	
0	0	0	0	0	528	
1	0	0	0	0	525	
2	0	0	0	0	522	
3	0	0	0	0	523	
4	0	0	0	0	521	
5	0	0	0	0	517	
6	0	0	0	0	517	
7	0	0	0	0	522	
8	0	0	0	0	527	
9	0	0	0	0	529	
10	0	0	0	0	528	
11	0	0	0	0	529	
12	0	0	0	0	528	
13	0	0	0	0	527	
14	0	0	0	0	527	
15	0	0	0	0	523	
0	0	0	0	0	517	
1	0	0	0	0	513	
2	0	0	0	0	513	
3	0	0	0	0	515	
4	0	0	0	0	519	
5	0	0	0	0	521	
6	0	0	0	0	520	
7	0	0	0	0	523	
8	0	0	0	0	525	
9	0	0	0	0	524	
10	0	0	0	0	524	
11	0	0	0	0	526	
12	0	0	0	0	528	
13	0	0	0	0	531	
14	0	0	0	0	534	
15	0	0	0	0	534	
0	0	0	0	0	526	
1	0	0	0	0	520	
2	0	0	0	0	518	
3	0	0	0	0	519	
4	0	0	0	0	516	
5	0	0	0	0	513	
6	0	0	0	0	513	
7	0	0	0	0	512	
8	0	0	0	0	515	
9	0	0	0	0	519	
10	0	0	0	0	520	
11	0	0	0	0	521	
12	0	0	0	0	523	
13	0	0	0	0	519	
14	0	0	0	0	516	
15	0	0	0	0	519	
0	0	0	0	0	518	
1	0	0	0	0	513	
2	0	0	0	0	511	
3	0	0	0	0	505	
4	0	0	0	0	500	
5	0	0	0	0	494	
6	0	0	0	0	491	
7	0	0	0	0	493	
8	0	0	0	0	500	
9	0	0	0	0	506	
10	0	0	0	0	508	
11	0	0	0	0	512	
12	0	0	0	0	512	
13	0	0	0	0	510	
14	0	0	0	0	506	
15	0	0	0	0	504	
0	0	0	0	0	500	
1	0	0	0	0	499	
2	0	0	0	0	496	
3	0	0	0	0	492	
4	0	0	0	0	481	
5	0	0	0	0	475	
6	0	0	0	0	482	
7	0	0	0	0	491	
8	0	0	0	0	494	
9	0	0	0	0	498	
10	0	0	0	0	503	
11	0	0	0	0	506	
12	0	0	0	0	502	
13	0	0	0	0	498	
14	0	0	0	0	498	
15	0	0	0	0	496	
0	0	0	0	0	500	
1	0	0	0	0	502	
2	0	0	0	0	499	
3	0	0	0	0	498	
4	0	0	0	0	493	
5	0	0	0	0	488	
6	0	0	0	0	481	
7	0	0	0	0	479	
8	0	0	0	0	482	
9	0	0	0	0	484	
10	0	0	0	0	483	
11	0	0	0	0	488	
12	0	0	0	0	493	
13	0	0	0	0	495	
14	0	0	0	0	494	
15	0	0	0	0	496	
0	0	0	0	0	500	
1	0	0	0	0	500	
2	0	0	0	0	497	
3	0	0	0	0	492	
4	0	0	0	0	488	
5	0	0	0	0	485	
6	0	0	0	0	484	
7	0	0	0	0	484	
8	0	0	0	0	485	
9	0	0	0	0	486	
10	0	0	0	0	492	
11	0	0	0	0	497	
12	0	0	0	0	496	
13	0	0	0	0	494	
14	0	0	0	0	489	
15	0	0	0	0	487	
0	0	0	0	0	488	
1	0	0	0	0	488	
2	0	0	0	0	488	
3	0	0	0	0	488	
4	0	0	0	0	486	
5	0	0	0	0	482	
6	0	0	0	0	483	
7	0	0	0	0	483	
8	0	0	0	0	481	
9	0	0	0	0	481	
10	0	0	0	0	484	
11	0	0	0	0	485	
12	0	0	0	0	485	
13	0	0	0	0	488	
14	0	0	0	0	493	
15	0	0	0	0	504	
0	0	0	0	0	508	
1	0	0	0	0	504	
2	0	0	0	0	497	
3	0	0	0	0	496	
4	0	0	0	0	492	
5	0	0	0	0	489	
6	0	0	0	0	488	
7	0	0	0	0	486	
8	0	0	0	0	487	
9	0	0	0	0	487	
10	0	0	0	0	488	
11	0	0	0	0	488	
12	0	0	0	0	491	
13	0	0	0	0	494	
14	0	0	0	0	496	
15	0	0	0	0	499	
0	0	0	0	0	502	
1	0	0	0	0	504	
2	0	0	0	0	503	
3	0	0	0	0	502	
4	0	0	0	0	502	
5	0	0	0	0	502	
6	0	0	0	0	499	
7	0	0	0	0	494	
8	0	0	0	0	487	
9	0	0	0	0	482	
10	0	0	0	0	477	
11	0	0	0	0	476	
12	0	0	0	0	484	
13	0	0	0	0	497	
14	0	0	0	0	506	
15	0	0	0	0	508	
0	0	0	0	0	511	
1	0	0	0	0	515	
2	0	0	0	0	515	
3	0	0	0	0	512	
4	0	0	0	0	507	
5	0	0	0	0	506	
6	0	0	0	0	503	
7	0	0	0	0	500	
8	0	0	0	0	499	
9	0	0	0	0	500	
10	0	0	0	0	499	
11	0	0	0	0	496	
12	0	0	0	0	491	
13	0	0	0	0	491	
14	0	0	0	0	494	
15	0	0	0	0	503	
0	0	0	0	0	510	
1	0	0	0	0	510	
2	0	0	0	0	514	
3	0	0	0	0	515	
4	0	0	0	0	514	
5	0	0	0	0	511	
6	0	0	0	0	505	
7	0	0	0	0	499	
8	0	0	0	0	495	
9	0	0	0	0	499	
10	0	0	0	0	501	
11	0	0	0	0	502	
12	0	0	0	0	500	
13	0	0	0	0	503	
14	0	0	0	0	508	
15	0	0	0	0	512	
0	0	0	0	0	511	
1	0	0	0	0	509	
2	0	0	0	0	509	
3	0	0	0	0	508	
4	0	0	0	0	508	
5	0	0	0	0	504	
6	0	0	0	0	503	
7	0	0	0	0	500	
8	0	0	0	0	498	
9	0	0	0	0	498	
10	0	0	0	0	499	
11	0	0	0	0	502	
12	0	0	0	0	503	
13	0	0	0	0	502	
14	0	0	0	0	500	
15	0	0	0	0	500	
0	0	0	0	0	504	
1	0	0	0	0	510	
2	0	0	0	0	512	
3	0	0	0	0	510	
4	0	0	0	0	509	
5	0	0	0	0	507	
6	0	0	0	0	505	
7	0	0	0	0	506	
8	0	0	0	0	508	
9	0	0	0	0	508	
10	0	0	0	0	505	
11	0	0	0	0	499	
12	0	0	0	0	493	
13	0	0	0	0	493	
14	0	0	0	0	497	
15	0	0	0	0	513	
0	0	0	0	0	523	
1	0	0	0	0	524	
2	0	0	0	0	522	
3	0	0	0	0	518	
4	0	0	0	0	514	
5	0	0	0	0	513	
6	0	0	0	0	513	
7	0	0	0	0	513	
8	0	0	0	0	515	
9	0	0	0	0	515	
10	0	0	0	0	514	
11	0	0	0	0	511	
12	0	0	0	0	508	
13	0	0	0	0	505	
14	0	0	0	0	506	
15	0	0	0	0	504	
0	0	0	0	0	504	
1	0	0	0	0	509	
2	0	0	0	0	512	
3	0	0	0	0	506	
4	0	0	0	0	497	
5	0	0	0	0	497	
6	0	0	0	0	503	
7	0	0	0	0	512	
8	0	0	0	0	514	
9	0	0	0	0	510	
10	0	0	0	0	504	
11	0	0	0	0	504	
12	0	0	0	0	506	
13	0	0	0	0	506	
14	0	0	0	0	507	
15	0	0	0	0	513	
0	0	0	0	0	515	
1	0	0	0	0	514	
2	0	0	0	0	512	
3	0	0	0	0	512	
4	0	0	0	0	510	
5	0	0	0	0	507	
6	0	0	0	0	502	
7	0	0	0	0	502	
8	0	0	0	0	509	
9	0	0	0	0	513	
10	0	0	0	0	510	
11	0	0	0	0	511	
12	0	0	0	0	516	
13	0	0	0	0	515	
14	0	0	0	0	510	
15	0	0	0	0	502	
0	0	0	0	0	502	
1	0	0	0	0	505	
2	0	0	0	0	508	
3	0	0	0	0	509	
4	0	0	0	0	512	
5	0	0	0	0	511	
6	0	0	0	0	513	
7	0	0	0	0	511	
8	0	0	0	0	508	
9	0	0	0	0	507	
10	0	0	0	0	506	
11	0	0	0	0	503	
12	0	0	0	0	501	
13	0	0	0	0	499	
14	0	0	0	0	498	
15	0	0	0	0	500	
0	0	0	0	0	505	
1	0	0	0	0	507	
2	0	0	0	0	509	
3	0	0	0	0	511	
4	0	0	0	0	511	
5	0	0	0	0	513	
6	0	0	0	0	514	
7	0	0	0	0	514	
8	0	0	0	0	509	
9	0	0	0	0	505	
10	0	0	0	0	506	
11	0	0	0	0	506	
12	0	0	0	0	506	
13	0	0	0	0	505	
14	0	0	0	0	504	
15	0	0	0	0	501	
0	0	0	0	0	498	
1	0	0	0	0	502	
2	0	0	0	0	509	
3	0	0	0	0	512	
4	0	0	0	0	514	
5	0	0	0	0	516	
6	0	0	0	0	510	
7	0	0	0	0	507	
8	0	0	0	0	511	
9	0	0	0	0	515	
10	0	0	0	0	518	
11	0	0	0	0	520	
12	0	0	0	0	520	
13	0	0	0	0	517	
14	0	0	0	0	513	
15	0	0	0	0	510	
0	0	0	0	0	510	
1	0	0	0	0	511	
2	0	0	0	0	511	
3	0	0	0	0	510	
4	0	0	0	0	510	
5	0	0	0	0	512	
6	0	0	0	0	511	
7	0	0	0	0	511	
8	0	0	0	0	509	
9	0	0	0	0	508	
10	0	0	0	0	507	
11	0	0	0	0	505	
12	0	0	0	0	504	
13	0	0	0	0	507	
14	0	0	0	0	507	
15	0	0	0	0	505	
0	0	0	0	0	501	
1	0	0	0	0	500	
2	0	0	0	0	507	
3	0	0	0	0	512	
4	0	0	0	0	516	
5	0	0	0	0	515	
6	0	0	0	0	512	
7	0	0	0	0	512	
8	0	0	0	0	511	
9	0	0	0	0	505	
10	0	0	0	0	497	
11	0	0	0	0	495	
12	0	0	0	0	501	
13	0	0	0	0	512	
14	0	0	0	0	518	
15	0	0	0	0	523	
0	0	0	0	0	527	
1	0	0	0	0	528	
2	0	0	0	0	525	
3	0	0	0	0	517	
4	0	0	0	0	512	
5	0	0	0	0	511	
6	0	0	0	0	508	
7	0	0	0	0	507	
8	0	0	0	0	509	
9	0	0	0	0	512	
10	0	0	0	0	516	
11	0	0	0	0	516	
12	0	0	0	0	514	
13	0	0	0	0	510	
14	0	0	0	0	509	
15	0	0	0	0	508	
0	0	0	0	0	507	
1	0	0	0	0	504	
2	0	0	0	0	504	
3	0	0	0	0	502	
4	0	0	0	0	500	
5	0	0	0	0	505	
6	0	0	0	0	513	
7	0	0	0	0	516	
8	0	0	0	0	521	
9	0	0	0	0	523	
10	0	0	0	0	520	
11	0	0	0	0	516	
12	0	0	0	0	514	
13	0	0	0	0	514	
14	0	0	0	0	512	
15	0	0	0	0	511	
0	0	0	0	0	512	
1	0	0	0	0	514	
2	0	0	0	0	514	
3	0	0	0	0	514	
4	0	0	0	0	519	
5	0	0	0	0	521	
6	0	0	0	0	521	
7	0	0	0	0	517	
8	0	0	0	0	514	
9	0	0	0	0	518	
10	0	0	0	0	519	
11	0	0	0	0	517	
12	0	0	0	0	513	
13	0	0	0	0	511	
14	0	0	0	0	514	
15	0	0	0	0	513	
0	0	0	0	0	514	
1	0	0	0	0	514	
2	0	0	0	0	512	
3	0	0	0	0	511	
4	0	0	0	0	512	
5	0	0	0	0	516	
6	0	0	0	0	516	
7	0	0	0	0	517	
8	0	0	0	0	519	
9	0	0	0	0	520	
10	0	0	0	0	521	
11	0	0	0	0	523	
12	0	0	0	0	523	
13	0	0	0	0	520	
14	0	0	0	0	516	
15	0	0	0	0	512	
0	0	0	0	0	512	
1	0	0	0	0	515	
2	0	0	0	0	519	
3	0	0	0	0	517	
4	0	0	0	0	513	
5	0	0	0	0	515	
6	0	0	0	0	519	
7	0	0	0	0	517	
8	0	0	0	0	508	
9	0	0	0	0	503	
10	0	0	0	0	508	
11	0	0	0	0	519	
12	0	0	0	0	526	
13	0	0	0	0	529	
14	0	0	0	0	533	
15	0	0	0	0	534	
0	0	0	0	0	526	
1	0	0	0	0	518	
2	0	0	0	0	509	
3	0	0	0	0	506	
4	0	0	0	0	506	
5	0	0	0	0	504	
6	0	0	0	0	502	
7	0	0	0	0	499	
8	0	0	0	0	501	
9	0	0	0	0	507	
10	0	0	0	0	514	
11	0	0	0	0	525	
12	0	0	0	0	529	
13	0	0	0	0	524	
14	0	0	0	0	519	
15	0	0	0	0	515	
0	0	0	0	0	513	
1	0	0	0	0	518	
2	0	0	0	0	523	
3	0	0	0	0	526	
4	0	0	0	0	527	
5	0	0	0	0	525	
6	0	0	0	0	521	
7	0	0	0	0	516	
8	0	0	0	0	514	
9	0	0	0	0	516	
10	0	0	0	0	521	
11	0	0	0	0	521	
12	0	0	0	0	518	
13	0	0	0	0	517	
14	0	0	0	0	519	
15	0	0	0	0	522	
0	0	0	0	0	524	
1	0	0	0	0	522	
2	0	0	0	0	519	
3	0	0	0	0	517	
4	0	0	0	0	518	
5	0	0	0	0	520	
6	0	0	0	0	517	
7	0	0	0	0	515	
8	0	0	0	0	521	
9	0	0	0	0	528	
10	0	0	0	0	534	
11	0	0	0	0	541	
12	0	0	0	0	542	
13	0	0	0	0	537	
14	0	0	0	0	533	
15	0	0	0	0	528	
0	0	0	0	0	521	
1	0	0	0	0	517	
2	0	0	0	0	514	
3	0	0	0	0	511	
4	0	0	0	0	505	
5	0	0	0	0	500	
6	0	0	0	0	501	
7	0	0	0	0	502	
8	0	0	0	0	498	
9	0	0	0	0	496	
10	0	0	0	0	497	
11	0	0	0	0	499	
12	0	0	0	0	508	
13	0	0	0	0	520	
14	0	0	0	0	523	
15	0	0	0	0	516	
0	0	0	0	0	509	
1	0	0	0	0	507	
2	0	0	0	0	510	
3	0	0	0	0	510	
4	0	0	0	0	508	
5	0	0	0	0	505	
6	0	0	0	0	501	
7	0	0	0	0	499	
8	0	0	0	0	500	
9	0	0	0	0	500	
10	0	0	0	0	498	
11	0	0	0	0	498	
12	0	0	0	0	498	
13	0	0	0	0	506	
14	0	0	0	0	511	
15	0	0	0	0	511	
0	0	0	0	0	513	
1	0	0	0	0	511	
2	0	0	0	0	508	
3	0	0	0	0	505	
4	0	0	0	0	505	
5	0	0	0	0	510	
6	0	0	0	0	508	
7	0	0	0	0	502	
8	0	0	0	0	491	
9	0	0	0	0	486	
10	0	0	0	0	492	
11	0	0	0	0	506	
12	0	0	0	0	513	
13	0	0	0	0	515	
14	0	0	0	0	515	
15	0	0	0	0	516	
0	0	0	0	0	512	
1	0	0	0	0	509	
2	0	0	0	0	507	
3	0	0	0	0	508	
4	0	0	0	0	510	
5	0	0	0	0	512	
6	0	0	0	0	511	
7	0	0	0	0	509	
8	0	0	0	0	510	
9	0	0	0	0	505	
10	0	0	0	0	499	
11	0	0	0	0	493	
12	0	0	0	0	493	
13	0	0	0	0	493	
14	0	0	0	0	498	
15	0	0	0	0	506	
0	0	0	0	0	510	
1	0	0	0	0	511	
2	0	0	0	0	512	
3	0	0	0	0	509	
4	0	0	0	0	501	
5	0	0	0	0	496	
6	0	0	0	0	496	
7	0	0	0	0	495	
8	0	0	0	0	491	
9	0	0	0	0	488	
10	0	0	0	0	490	
11	0	0	0	0	498	
12	0	0	0	0	508	
13	0	0	0	0	519	
14	0	0	0	0	530	
15	0	0	0	0	539	
0	0	0	0	0	551	
1	0	0	0	0	563	
2	0	0	0	0	573	
3	0	0	0	0	583	
4	0	0	0	0	594	
5	0	0	0	0	602	
6	0	0	0	0	608	
7	0	0	0	0	613	
8	0	0	0	0	617	
9	0	0	0	0	628	
10	0	0	0	0	640	
11	0	0	0	0	651	
12	0	0	0	0	658	
13	0	0	0	0	665	
14	0	0	0	0	673	
15	0	0	0	0	674	
0	0	0	0	0	672	
1	0	0	0	0	668	
2	0	0	0	0	665	
3	0	0	0	0	664	
4	0	0	0	0	656	
5	0	0	0	0	643	
6	0	0	0	0	631	
7	0	0	0	0	617	
8	0	0	0	0	603	
9	0	0	0	0	588	
10	0	0	0	0	573	
11	0	0	0	0	557	
12	0	0	0	0	543	
13	0	0	0	0	525	
14	0	0	0	0	508	
15	0	0	0	0	494	
0	0	0	0	0	481	
1	0	0	0	0	465	
2	0	0	0	0	450	
3	0	0	0	0	443	
4	0	0	0	0	447	
5	0	0	0	0	452	
6	0	0	0	0	454	
7	0	0	0	0	454	
8	0	0	0	0	455	
9	0	0	0	0	454	
10	0	0	0	0	454	
11	0	0	0	0	456	
12	0	0	0	0	463	
13	0	0	0	0	469	
14	0	0	0	0	471	
15	0	0	0	0	472	
0	0	0	0	0	472	
1	0	0	0	0	470	
2	0	0	0	0	473	
3	0	0	0	0	474	
4	0	0	0	0	473	
5	0	0	0	0	473	
6	0	0	0	0	477	
7	0	0	0	0	478	
8	0	0	0	0	476	
9	0	0	0	0	473	
10	0	0	0	0	473	
11	0	0	0	0	474	
12	0	0	0	0	474	
13	0	0	0	0	477	
14	0	0	0	0	478	
15	0	0	0	0	483	
0	0	0	0	0	487	
1	0	0	0	0	491	
2	0	0	0	0	494	
3	0	0	0	0	491	
4	0	0	0	0	490	
5	0	0	0	0	492	
6	0	0	0	0	494	
7	0	0	0	0	490	
8	0	0	0	0	487	
9	0	0	0	0	486	
10	0	0	0	0	485	
11	0	0	0	0	486	
12	0	0	0	0	484	
13	0	0	0	0	482	
14	0	0	0	0	481	
15	0	0	0	0	483	
0	0	0	0	0	490	
1	0	0	0	0	495	
2	0	0	0	0	497	
3	0	0	0	0	501	
4	0	0	0	0	505	
5	0	0	0	0	505	
6	0	0	0	0	504	
7	0	0	0	0	503	
8	0	0	0	0	499	
9	0	0	0	0	493	
10	0	0	0	0	493	
11	0	0	0	0	493	
12	0	0	0	0	494	
13	0	0	0	0	494	
14	0	0	0	0	494	
15	0	0	0	0	497	
0	0	0	0	0	503	
1	0	0	0	0	503	
2	0	0	0	0	504	
3	0	0	0	0	504	
4	0	0	0	0	502	
5	0	0	0	0	501	
6	0	0	0	0	501	
7	0	0	0	0	502	
8	0	0	0	0	498	
9	0	0	0	0	494	
10	0	0	0	0	492	
11	0	0	0	0	491	
12	0	0	0	0	495	
13	0	0	0	0	496	
14	0	0	0	0	494	
15	0	0	0	0	495	
0	0	0	0	0	496	
1	0	0	0	0	499	
2	0	0	0	0	503	
3	0	0	0	0	502	
4	0	0	0	0	502	
5	0	0	0	0	505	
6	0	0	0	0	506	
7	0	0	0	0	506	
8	0	0	0	0	507	
9	0	0	0	0	508	
10	0	0	0	0	508	
11	0	0	0	0	508	
12	0	0	0	0	505	
13	0	0	0	0	504	
14	0	0	0	0	503	
15	0	0	0	0	499	
0	0	0	0	0	501	
1	0	0	0	0	503	
2	0	0	0	0	505	
3	0	0	0	0	510	
4	0	0	0	0	515	
5	0	0	0	0	516	
6	0	0	0	0	515	
7	0	0	0	0	514	
8	0	0	0	0	512	
9	0	0	0	0	500	
10	0	0	0	0	495	
11	0	0	0	0	495	
12	0	0	0	0	503	
13	0	0	0	0	512	
14	0	0	0	0	515	
15	0	0	0	0	515	
0	0	0	0	0	511	
1	0	0	0	0	510	
2	0	0	0	0	514	
3	0	0	0	0	517	
4	0	0	0	0	515	
5	0	0	0	0	516	
6	0	0	0	0	518	
7	0	0	0	0	519	
8	0	0	0	0	518	
9	0	0	0	0	516	
10	0	0	0	0	516	
11	0	0	0	0	515	
12	0	0	0	0	512	
13	0	0	0	0	507	
14	0	0	0	0	505	
15	0	0	0	0	501	
0	0	0	0	0	495	
1	0	0	0	0	498	
2	0	0	0	0	507	
3	0	0	0	0	517	
4	0	0	0	0	519	
5	0	0	0	0	515	
6	0	0	0	0	514	
7	0	0	0	0	517	
8	0	0	0	0	517	
9	0	0	0	0	515	
10	0	0	0	0	513	
11	0	0	0	0	512	
12	0	0	0	0	514	
13	0	0	0	0	522	
14	0	0	0	0	526	
15	0	0	0	0	526	
0	0	0	0	0	524	
1	0	0	0	0	521	
2	0	0	0	0	517	
3	0	0	0	0	516	
4	0	0	0	0	521	
5	0	0	0	0	521	
6	0	0	0	0	524	
7	0	0	0	0	528	
8	0	0	0	0	531	
9	0	0	0	0	532	
10	0	0	0	0	531	
11	0	0	0	0	527	
12	0	0	0	0	524	
13	0	0	0	0	521	
14	0	0	0	0	521	
15	0	0	0	0	525	
0	0	0	0	0	529	
1	0	0	0	0	529	
2	0	0	0	0	525	
3	0	0	0	0	522	
4	0	0	0	0	524	
5	0	0	0	0	528	
6	0	0	0	0	533	
7	0	0	0	0	544	
8	0	0	0	0	550	
9	0	0	0	0	544	
10	0	0	0	0	534	
11	0	0	0	0	527	
12	0	0	0	0	527	
13	0	0	0	0	526	
14	0	0	0	0	524	
15	0	0	0	0	521	
0	0	0	0	0	521	
1	0	0	0	0	521	
2	0	0	0	0	519	
3	0	0	0	0	522	
4	0	0	0	0	523	
5	0	0	0	0	524	
6	0	0	0	0	526	
7	0	0	0	0	530	
8	0	0	0	0	534	
9	0	0	0	0	534	
10	0	0	0	0	534	
11	0	0	0	0	535	
12	0	0	0	0	534	
13	0	0	0	0	528	
14	0	0	0	0	527	
15	0	0	0	0	528	
0	0	0	0	0	534	
1	0	0	0	0	531	
2	0	0	0	0	528	
3	0	0	0	0	526	
4	0	0	0	0	523	
5	0	0	0	0	516	
6	0	0	0	0	515	
7	0	0	0	0	522	
8	0	0	0	0	531	
9	0	0	0	0	536	
10	0	0	0	0	537	
11	0	0	0	0	538	
12	0	0	0	0	531	
13	0	0	0	0	527	
14	0	0	0	0	531	
15	0	0	0	0	532	
0	0	0	0	0	535	
1	0	0	0	0	537	
2	0	0	0	0	536	
3	0	0	0	0	531	
4	0	0	0	0	525	
5	0	0	0	0	521	
6	0	0	0	0	519	
7	0	0	0	0	519	
8	0	0	0	0	519	
9	0	0	0	0	521	
10	0	0	0	0	523	
11	0	0	0	0	521	
12	0	0	0	0	523	
13	0	0	0	0	526	
14	0	0	0	0	526	
15	0	0	0	0	522	
0	0	0	0	0	515	
1	0	0	0	0	511	
2	0	0	0	0	510	
3	0	0	0	0	508	
4	0	0	0	0	504	
5	0	0	0	0	502	
6	0	0	0	0	503	
7	0	0	0	0	508	
8	0	0	0	0	516	
9	0	0	0	0	519	
10	0	0	0	0	518	
11	0	0	0	0	515	
12	0	0	0	0	515	
13	0	0	0	0	512	
14	0	0	0	0	508	
15	0	0	0	0	503	
0	0	0	0	0	498	
1	0	0	0	0	492	
2	0	0	0	0	487	
3	0	0	0	0	487	
4	0	0	0	0	490	
5	0	0	0	0	493	
6	0	0	0	0	494	
7	0	0	0	0	491	
8	0	0	0	0	491	
9	0	0	0	0	495	
10	0	0	0	0	499	
11	0	0	0	0	501	
12	0	0	0	0	500	
13	0	0	0	0	500	
14	0	0	0	0	500	
15	0	0	0	0	498	
0	0	0	0	0	494	
1	0	0	0	0	496	
2	0	0	0	0	496	
3	0	0	0	0	492	
4	0	0	0	0	490	
5	0	0	0	0	488	
6	0	0	0	0	488	
7	0	0	0	0	488	
8	0	0	0	0	489	
9	0	0	0	0	490	
10	0	0	0	0	489	
11	0	0	0	0	481	
12	0	0	0	0	478	
13	0	0	0	0	486	
14	0	0	0	0	499	
15	0	0	0	0	505	
0	0	0	0	0	506	
1	0	0	0	0	504	
2	0	0	0	0	501	
3	0	0	0	0	500	
4	0	0	0	0	497	
5	0	0	0	0	492	
6	0	0	0	0	493	
7	0	0	0	0	493	
8	0	0	0	0	493	
9	0	0	0	0	493	
10	0	0	0	0	493	
11	0	0	0	0	491	
12	0	0	0	0	491	
13	0	0	0	0	493	
14	0	0	0	0	495	
15	0	0	0	0	495	
0	0	0	0	0	496	
1	0	0	0	0	499	
2	0	0	0	0	499	
3	0	0	0	0	497	
4	0	0	0	0	491	
5	0	0	0	0	486	
6	0	0	0	0	489	
7	0	0	0	0	499	
8	0	0	0	0	503	
9	0	0	0	0	502	
10	0	0	0	0	498	
11	0	0	0	0	497	
12	0	0	0	0	500	
13	0	0	0	0	500	
14	0	0	0	0	500	
15	0	0	0	0	500	
0	0	0	0	0	498	
1	0	0	0	0	497	
2	0	0	0	0	496	
3	0	0	0	0	492	
4	0	0	0	0	488	
5	0	0	0	0	491	
6	0	0	0	0	494	
7	0	0	0	0	493	
8	0	0	0	0	492	
9	0	0	0	0	492	
10	0	0	0	0	493	
11	0	0	0	0	494	
12	0	0	0	0	496	
13	0	0	0	0	499	
14	0	0	0	0	501	
15	0	0	0	0	501	
0	0	0	0	0	498	
1	0	0	0	0	493	
2	0	0	0	0	490	
3	0	0	0	0	487	
4	0	0	0	0	487	
5	0	0	0	0	495	
6	0	0	0	0	501	
7	0	0	0	0	502	
8	0	0	0	0	500	
9	0	0	0	0	495	
10	0	0	0	0	491	
11	0	0	0	0	495	
12	0	0	0	0	496	
13	0	0	0	0	499	
14	0	0	0	0	499	
15	0	0	0	0	500	
0	0	0	0	0	504	
1	0	0	0	0	503	
2	0	0	0	0	501	
3	0	0	0	0	501	
4	0	0	0	0	499	
5	0	0	0	0	497	
6	0	0	0	0	496	
7	0	0	0	0	495	
8	0	0	0	0	496	
9	0	0	0	0	499	
10	0	0	0	0	501	
11	0	0	0	0	505	
12	0	0	0	0	508	
13	0	0	0	0	508	
14	0	0	0	0	508	
15	0	0	0	0	506	
0	0	0	0	0	507	
1	0	0	0	0	511	
2	0	0	0	0	511	
3	0	0	0	0	513	
4	0	0	0	0	513	
5	0	0	0	0	508	
6	0	0	0	0	496	
7	0	0	0	0	494	
8	0	0	0	0	497	
9	0	0	0	0	500	
10	0	0	0	0	507	
11	0	0	0	0	508	
12	0	0	0	0	504	
13	0	0	0	0	504	
14	0	0	0	0	511	
15	0	0	0	0	513	
0	0	0	0	0	513	
1	0	0	0	0	512	
2	0	0	0	0	510	
3	0	0	0	0	509	
4	0	0	0	0	509	
5	0	0	0	0	512	
6	0	0	0	0	508	
7	0	0	0	0	500	
8	0	0	0	0	496	
9	0	0	0	0	496	
10	0	0	0	0	498	
11	0	0	0	0	503	
12	0	0	0	0	507	
13	0	0	0	0	515	
14	0	0	0	0	519	
15	0	0	0	0	518	
0	0	0	0	0	516	
1	0	0	0	0	514	
2	0	0	0	0	512	
3	0	0	0	0	509	
4	0	0	0	0	505	
5	0	0	0	0	503	
6	0	0	0	0	503	
7	0	0	0	0	504	
8	0	0	0	0	500	
9	0	0	0	0	499	
10	0	0	0	0	500	
11	0	0	0	0	501	
12	0	0	0	0	505	
13	0	0	0	0	504	
14	0	0	0	0	505	
15	0	0	0	0	506	
0	0	0	0	0	506	
1	0	0	0	0	505	
2	0	0	0	0	503	
3	0	0	0	0	505	
4	0	0	0	0	510	
5	0	0	0	0	512	
6	0	0	0	0	511	
7	0	0	0	0	507	
8	0	0	0	0	506	
9	0	0	0	0	505	
10	0	0	0	0	503	
11	0	0	0	0	505	
12	0	0	0	0	507	
13	0	0	0	0	507	
14	0	0	0	0	509	
15	0	0	0	0	514	
0	0	0	0	0	519	
1	0	0	0	0	515	
2	0	0	0	0	513	
3	0	0	0	0	512	
4	0	0	0	0	512	
5	0	0	0	0	510	
6	0	0	0	0	509	
7	0	0	0	0	513	
8	0	0	0	0	519	
9	0	0	0	0	518	
10	0	0	0	0	519	
11	0	0	0	0	520	
12	0	0	0	0	514	
13	0	0	0	0	507	
14	0	0	0	0	506	
15	0	0	0	0	510	
0	0	0	0	0	513	
1	0	0	0	0	515	
2	0	0	0	0	515	
3	0	0	0	0	508	
4	0	0	0	0	498	
5	0	0	0	0	496	
6	0	0	0	0	503	
7	0	0	0	0	510	
8	0	0	0	0	514	
9	0	0	0	0	515	
10	0	0	0	0	516	
11	0	0	0	0	512	
12	0	0	0	0	508	
13	0	0	0	0	508	
14	0	0	0	0	506	
15	0	0	0	0	507	
0	0	0	0	0	511	
1	0	0	0	0	514	
2	0	0	0	0	515	
3	0	0	0	0	515	
4	0	0	0	0	513	
5	0	0	0	0	508	
6	0	0	0	0	505	
7	0	0	0	0	506	
8	0	0	0	0	507	
9	0	0	0	0	507	
10	0	0	0	0	510	
11	0	0	0	0	514	
12	0	0	0	0	514	
13	0	0	0	0	515	
14	0	0	0	0	516	
15	0	0	0	0	515	
0	0	0	0	0	511	
1	0	0	0	0	510	
2	0	0	0	0	509	
3	0	0	0	0	512	
4	0	0	0	0	513	
5	0	0	0	0	515	
6	0	0	0	0	518	
7	0	0	0	0	515	
8	0	0	0	0	512	
9	0	0	0	0	511	
10	0	0	0	0	510	
11	0	0	0	0	508	
12	0	0	0	0	509	
13	0	0	0	0	508	
14	0	0	0	0	507	
15	0	0	0	0	506	
0	0	0	0	0	504	
1	0	0	0	0	503	
2	0	0	0	0	506	
3	0	0	0	0	510	
4	0	0	0	0	512	
5	0	0	0	0	513	
6	0	0	0	0	508	
7	0	0	0	0	504	
8	0	0	0	0	504	
9	0	0	0	0	508	
10	0	0	0	0	510	
11	0	0	0	0	512	
12	0	0	0	0	514	
13	0	0	0	0	515	
14	0	0	0	0	514	
15	0	0	0	0	510	
0	0	0	0	0	510	
1	0	0	0	0	509	
2	0	0	0	0	508	
3	0	0	0	0	510	
4	0	0	0	0	516	
5	0	0	0	0	518	
6	0	0	0	0	518	
7	0	0	0	0	519	
8	0	0	0	0	516	
9	0	0	0	0	511	
10	0	0	0	0	508	
11	0	0	0	0	509	
12	0	0	0	0	509	
13	0	0	0	0	500	
14	0	0	0	0	487	
15	0	0	0	0	486	
0	0	0	0	0	492	
1	0	0	0	0	502	
2	0	0	0	0	514	
3	0	0	0	0	527	
4	0	0	0	0	529	
5	0	0	0	0	527	
6	0	0	0	0	522	
7	0	0	0	0	523	
8	0	0	0	0	525	
9	0	0	0	0	524	
10	0	0	0	0	522	
11	0	0	0	0	520	
12	0	0	0	0	518	
13	0	0	0	0	515	
14	0	0	0	0	513	
15	0	0	0	0	506	
0	0	0	0	0	503	
1	0	0	0	0	505	
2	0	0	0	0	509	
3	0	0	0	0	511	
4	0	0	0	0	513	
5	0	0	0	0	512	
6	0	0	0	0	512	
7	0	0	0	0	511	
8	0	0	0	0	511	
9	0	0	0	0	511	
10	0	0	0	0	508	
11	0	0	0	0	509	
12	0	0	0	0	510	
13	0	0	0	0	511	
14	0	0	0	0	509	
15	0	0	0	0	510	
0	0	0	0	0	510	
1	0	0	0	0	510	
2	0	0	0	0	513	
3	0	0	0	0	514	
4	0	0	0	0	517	
5	0	0	0	0	519	
6	0	0	0	0	521	
7	0	0	0	0	523	
8	0	0	0	0	523	
9	0	0	0	0	521	
10	0	0	0	0	518	
11	0	0	0	0	517	
12	0	0	0	0	516	
13	0	0	0	0	513	
14	0	0	0	0	512	
15	0	0	0	0	512	
0	0	0	0	0	513	
1	0	0	0	0	511	
2	0	0	0	0	508	
3	0	0	0	0	507	
4	0	0	0	0	507	
5	0	0	0	0	508	
6	0	0	0	0	510	
7	0	0	0	0	515	
8	0	0	0	0	515	
9	0	0	0	0	511	
10	0	0	0	0	508	
11	0	0	0	0	512	
12	0	0	0	0	516	
13	0	0	0	0	515	
14	0	0	0	0	511	
15	0	0	0	0	509	
0	0	0	0	0	507	
1	0	0	0	0	504	
2	0	0	0	0	504	
3	0	0	0	0	507	
4	0	0	0	0	509	
5	0	0	0	0	511	
6	0	0	0	0	510	
7	0	0	0	0	507	
8	0	0	0	0	508	
9	0	0	0	0	515	
10	0	0	0	0	522	
11	0	0	0	0	526	
12	0	0	0	0	526	
13	0	0	0	0	524	
14	0	0	0	0	520	
15	0	0	0	0	511	
0	0	0	0	0	495	
1	0	0	0	0	490	
2	0	0	0	0	493	
3	0	0	0	0	500	
4	0	0	0	0	508	
5	0	0	0	0	515	
6	0	0	0	0	526	
7	0	0	0	0	532	
8	0	0	0	0	531	
9	0	0	0	0	528	
10	0	0	0	0	528	
11	0	0	0	0	527	
12	0	0	0	0	523	
13	0	0	0	0	519	
14	0	0	0	0	515	
15	0	0	0	0	512	
0	0	0	0	0	507	
1	0	0	0	0	503	
2	0	0	0	0	503	
3	0	0	0	0	508	
4	0	0	0	0	514	
5	0	0	0	0	516	
6	0	0	0	0	518	
7	0	0	0	0	520	
8	0	0	0	0	519	
9	0	0	0	0	518	
10	0	0	0	0	521	
11	0	0	0	0	523	
12	0	0	0	0	519	
13	0	0	0	0	518	
14	0	0	0	0	523	
15	0	0	0	0	526	
0	0	0	0	0	523	
1	0	0	0	0	523	
2	0	0	0	0	520	
3	0	0	0	0	516	
4	0	0	0	0	511	
5	0	0	0	0	511	
6	0	0	0	0	509	
7	0	0	0	0	511	
8	0	0	0	0	515	
9	0	0	0	0	519	
10	0	0	0	0	523	
11	0	0	0	0	525	
12	0	0	0	0	526	
13	0	0	0	0	527	
14	0	0	0	0	530	
15	0	0	0	0	535	
0	0	0	0	0	536	
1	0	0	0	0	531	
2	0	0	0	0	528	
3	0	0	0	0	526	
4	0	0	0	0	525	
5	0	0	0	0	529	
6	0	0	0	0	531	
7	0	0	0	0	531	
8	0	0	0	0	530	
9	0	0	0	0	527	
10	0	0	0	0	525	
11	0	0	0	0	525	
12	0	0	0	0	524	
13	0	0	0	0	524	
14	0	0	0	0	523	
15	0	0	0	0	522	
0	0	0	0	0	520	
1	0	0	0	0	518	
2	0	0	0	0	512	
3	0	0	0	0	508	
4	0	0	0	0	508	
5	0	0	0	0	510	
6	0	0	0	0	510	
7	0	0	0	0	511	
8	0	0	0	0	509	
9	0	0	0	0	503	
10	0	0	0	0	503	
11	0	0	0	0	507	
12	0	0	0	0	510	
13	0	0	0	0	511	
14	0	0	0	0	512	
15	0	0	0	0	510	
0	0	0	0	0	507	
1	0	0	0	0	506	
2	0	0	0	0	502	
3	0	0	0	0	496	
4	0	0	0	0	493	
5	0	0	0	0	497	
6	0	0	0	0	499	
7	0	0	0	0	499	
8	0	0	0	0	497	
9	0	0	0	0	497	
10	0	0	0	0	499	
11	0	0	0	0	498	
12	0	0	0	0	496	
13	0	0	0	0	496	
14	0	0	0	0	502	
15	0	0	0	0	508	
0	0	0	0	0	508	
1	0	0	0	0	510	
2	0	0	0	0	509	
3	0	0	0	0	511	
4	0	0	0	0	511	
5	0	0	0	0	510	
6	0	0	0	0	508	
7	0	0	0	0	505	
8	0	0	0	0	507	
9	0	0	0	0	509	
10	0	0	0	0	508	
11	0	0	0	0	511	
12	0	0	0	0	520	
13	0	0	0	0	524	
14	0	0	0	0	525	
15	0	0	0	0	526	
0	0	0	0	0	523	
1	0	0	0	0	516	
2	0	0	0	0	508	
3	0	0	0	0	499	
4	0	0	0	0	494	
5	0	0	0	0	497	
6	0	0	0	0	502	
7	0	0	0	0	511	
8	0	0	0	0	517	
9	0	0	0	0	518	
10	0	0	0	0	518	
11	0	0	0	0	515	
12	0	0	0	0	512	
13	0	0	0	0	508	
14	0	0	0	0	504	
15	0	0	0	0	500	
0	0	0	0	0	499	
1	0	0	0	0	502	
2	0	0	0	0	503	
3	0	0	0	0	504	
4	0	0	0	0	503	
5	0	0	0	0	505	
6	0	0	0	0	508	
7	0	0	0	0	510	
8	0	0	0	0	513	
9	0	0	0	0	520	
10	0	0	0	0	526	
11	0	0	0	0	534	
12	0	0	0	0	542	
13	0	0	0	0	556	
14	0	0	0	0	570	
15	0	0	0	0	582	
0	0	0	0	0	591	
1	0	0	0	0	600	
2	0	0	0	0	609	
3	0	0	0	0	617	
4	0	0	0	0	620	
5	0	0	0	0	633	
6	0	0	0	0	644	
7	0	0	0	0	654	
8	0	0	0	0	658	
9	0	0	0	0	665	
10	0	0	0	0	674	
11	0	0	0	0	674	
12	0	0	0	0	668	
13	0	0	0	0	660	
14	0	0	0	0	655	
15	0	0	0	0	655	
0	0	0	0	0	652	
1	0	0	0	0	647	
2	0	0	0	0	638	
3	0	0	0	0	625	
4	0	0	0	0	609	
5	0	0	0	0	591	
6	0	0	0	0	573	
7	0	0	0	0	552	
8	0	0	0	0	535	
9	0	0	0	0	510	
10	0	0	0	0	489	
11	0	0	0	0	480	
12	0	0	0	0	475	
13	0	0	0	0	465	
14	0	0	0	0	454	
15	0	0	0	0	448	
0	0	0	0	0	447	
1	0	0	0	0	455	
2	0	0	0	0	465	
3	0	0	0	0	467	
4	0	0	0	0	464	
5	0	0	0	0	465	
6	0	0	0	0	466	
7	0	0	0	0	463	
8	0	0	0	0	459	
9	0	0	0	0	457	
10	0	0	0	0	455	
11	0	0	0	0	457	
12	0	0	0	0	464	
13	0	0	0	0	472	
14	0	0	0	0	475	
15	0	0	0	0	477	
0	0	0	0	0	479	
1	0	0	0	0	479	
2	0	0	0	0	476	
3	0	0	0	0	476	
4	0	0	0	0	480	
5	0	0	0	0	483	
6	0	0	0	0	481	
7	0	0	0	0	476	
8	0	0	0	0	470	
9	0	0	0	0	471	
10	0	0	0	0	473	
11	0	0	0	0	476	
12	0	0	0	0	480	
13	0	0	0	0	481	
14	0	0	0	0	482	
15	0	0	0	0	485	
0	0	0	0	0	487	
1	0	0	0	0	489	
2	0	0	0	0	490	
3	0	0	0	0	490	
4	0	0	0	0	489	
5	0	0	0	0	486	
6	0	0	0	0	485	
7	0	0	0	0	490	
8	0	0	0	0	492	
9	0	0	0	0	491	
10	0	0	0	0	492	
11	0	0	0	0	493	
12	0	0	0	0	494	
13	0	0	0	0	491	
14	0	0	0	0	489	
15	0	0	0	0	489	
0	0	0	0	0	492	
1	0	0	0	0	496	
2	0	0	0	0	499	
3	0	0	0	0	496	
4	0	0	0	0	493	
5	0	0	0	0	491	
6	0	0	0	0	492	
7	0	0	0	0	492	
8	0	0	0	0	490	
9	0	0	0	0	488	
10	0	0	0	0	485	
11	0	0	0	0	483	
12	0	0	0	0	485	
13	0	0	0	0	483	
14	0	0	0	0	485	
15	0	0	0	0	489	
0	0	0	0	0	490	
1	0	0	0	0	492	
2	0	0	0	0	493	
3	0	0	0	0	492	
4	0	0	0	0	492	
5	0	0	0	0	496	
6	0	0	0	0	501	
7	0	0	0	0	502	
8	0	0	0	0	499	
9	0	0	0	0	494	
10	0	0	0	0	493	
11	0	0	0	0	499	
12	0	0	0	0	504	
13	0	0	0	0	505	
14	0	0	0	0	502	
15	0	0	0	0	499	
0	0	0	0	0	500	
1	0	0	0	0	502	
2	0	0	0	0	504	
3	0	0	0	0	503	
4	0	0	0	0	504	
5	0	0	0	0	504	
6	0	0	0	0	505	
7	0	0	0	0	505	
8	0	0	0	0	504	
9	0	0	0	0	501	
10	0	0	0	0	507	
11	0	0	0	0	509	
12	0	0	0	0	505	
13	0	0	0	0	500	
14	0	0	0	0	500	
15	0	0	0	0	503	
0	0	0	0	0	502	
1	0	0	0	0	497	
2	0	0	0	0	499	
3	0	0	0	0	504	
4	0	0	0	0	513	
5	0	0	0	0	515	
6	0	0	0	0	512	
7	0	0	0	0	513	
8	0	0	0	0	519	
9	0	0	0	0	527	
10	0	0	0	0	527	
11	0	0	0	0	521	
12	0	0	0	0	515	
13	0	0	0	0	510	
14	0	0	0	0	506	
15	0	0	0	0	508	
0	0	0	0	0	515	
1	0	0	0	0	517	
2	0	0	0	0	519	
3	0	0	0	0	519	
4	0	0	0	0	519	
5	0	0	0	0	524	
6	0	0	0	0	526	
7	0	0	0	0	524	
8	0	0	0	0	519	
9	0	0	0	0	520	
10	0	0	0	0	521	
11	0	0	0	0	520	
12	0	0	0	0	516	
13	0	0	0	0	512	
14	0	0	0	0	512	
15	0	0	0	0	511	
0	0	0	0	0	511	
1	0	0	0	0	512	
2	0	0	0	0	512	
3	0	0	0	0	515	
4	0	0	0	0	521	
5	0	0	0	0	523	
6	0	0	0	0	522	
7	0	0	0	0	519	
8	0	0	0	0	517	
9	0	0	0	0	517	
10	0	0	0	0	520	
11	0	0	0	0	521	
12	0	0	0	0	521	
13	0	0	0	0	517	
14	0	0	0	0	515	
15	0	0	0	0	513	
0	0	0	0	0	512	
1	0	0	0	0	511	
2	0	0	0	0	511	
3	0	0	0	0	513	
4	0	0	0	0	515	
5	0	0	0	0	517	
6	0	0	0	0	518	
7	0	0	0	0	522	
8	0	0	0	0	530	
9	0	0	0	0	531	
10	0	0	0	0	525	
11	0	0	0	0	518	
12	0	0	0	0	513	
13	0	0	0	0	514	
14	0	0	0	0	516	
15	0	0	0	0	519	
0	0	0	0	0	524	
1	0	0	0	0	526	
2	0	0	0	0	527	
3	0	0	0	0	527	
4	0	0	0	0	526	
5	0	0	0	0	524	
6	0	0	0	0	525	
7	0	0	0	0	528	
8	0	0	0	0	531	
9	0	0	0	0	528	
10	0	0	0	0	517	
11	0	0	0	0	506	
12	0	0	0	0	504	
13	0	0	0	0	515	
14	0	0	0	0	527	
15	0	0	0	0	532	
0	0	0	0	0	534	
1	0	0	0	0	532	
2	0	0	0	0	533	
3	0	0	0	0	540	
4	0	0	0	0	542	
5	0	0	0	0	542	
6	0	0	0	0	543	
7	0	0	0	0	543	
8	0	0	0	0	544	
9	0	0	0	0	542	
10	0	0	0	0	539	
11	0	0	0	0	536	
12	0	0	0	0	531	
13	0	0	0	0	527	
14	0	0	0	0	523	
15	0	0	0	0	520	
0	0	0	0	0	521	
1	0	0	0	0	520	
2	0	0	0	0	517	
3	0	0	0	0	511	
4	0	0	0	0	504	
5	0	0	0	0	504	
6	0	0	0	0	516	
7	0	0	0	0	536	
8	0	0	0	0	551	
9	0	0	0	0	552	
10	0	0	0	0	546	
11	0	0	0	0	541	
12	0	0	0	0	536	
13	0	0	0	0	529	
14	0	0	0	0	524	
15	0	0	0	0	524	
0	0	0	0	0	523	
1	0	0	0	0	521	
2	0	0	0	0	514	
3	0	0	0	0	512	
4	0	0	0	0	513	
5	0	0	0	0	518	
6	0	0	0	0	521	
7	0	0	0	0	520	
8	0	0	0	0	523	
9	0	0	0	0	522	
10	0	0	0	0	518	
11	0	0	0	0	517	
12	0	0	0	0	513	
13	0	0	0	0	507	
14	0	0	0	0	503	
15	0	0	0	0	502	
0	0	0	0	0	498	
1	0	0	0	0	500	
2	0	0	0	0	502	
3	0	0	0	0	501	
4	0	0	0	0	501	
5	0	0	0	0	500	
6	0	0	0	0	498	
7	0	0	0	0	497	
8	0	0	0	0	494	
9	0	0	0	0	493	
10	0	0	0	0	494	
11	0	0	0	0	495	
12	0	0	0	0	496	
13	0	0	0	0	498	
14	0	0	0	0	493	
15	0	0	0	0	484	
0	0	0	0	0	479	
1	0	0	0	0	474	
2	0	0	0	0	473	
3	0	0	0	0	476	
4	0	0	0	0	485	
5	0	0	0	0	489	
6	0	0	0	0	492	
7	0	0	0	0	492	
8	0	0	0	0	490	
9	0	0	0	0	491	
10	0	0	0	0	497	
11	0	0	0	0	499	
12	0	0	0	0	497	
13	0	0	0	0	489	
14	0	0	0	0	487	
15	0	0	0	0	485	
0	0	0	0	0	483	
1	0	0	0	0	485	
2	0	0	0	0	487	
3	0	0	0	0	484	
4	0	0	0	0	477	
5	0	0	0	0	472	
6	0	0	0	0	474	
7	0	0	0	0	479	
8	0	0	0	0	484	
9	0	0	0	0	489	
10	0	0	0	0	493	
11	0	0	0	0	492	
12	0	0	0	0	491	
13	0	0	0	0	488	
14	0	0	0	0	486	
15	0	0	0	0	486	
0	0	0	0	0	487	
1	0	0	0	0	487	
2	0	0	0	0	486	
3	0	0	0	0	488	
4	0	0	0	0	490	
5	0	0	0	0	495	
6	0	0	0	0	492	
7	0	0	0	0	486	
8	0	0	0	0	478	
9	0	0	0	0	475	
10	0	0	0	0	477	
11	0	0	0	0	480	
12	0	0	0	0	487	
13	0	0	0	0	487	
14	0	0	0	0	487	
15	0	0	0	0	488	
0	0	0	0	0	487	
1	0	0	0	0	488	
2	0	0	0	0	491	
3	0	0	0	0	493	
4	0	0	0	0	489	
5	0	0	0	0	481	
6	0	0	0	0	476	
7	0	0	0	0	480	
8	0	0	0	0	483	
9	0	0	0	0	486	
10	0	0	0	0	489	
11	0	0	0	0	494	
12	0	0	0	0	499	
13	0	0	0	0	502	
14	0	0	0	0	501	
15	0	0	0	0	495	
0	0	0	0	0	488	
1	0	0	0	0	487	
2	0	0	0	0	487	
3	0	0	0	0	492	
4	0	0	0	0	492	
5	0	0	0	0	493	
6	0	0	0	0	495	
7	0	0	0	0	495	
8	0	0	0	0	492	
9	0	0	0	0	489	
10	0	0	0	0	487	
11	0	0	0	0	487	
12	0	0	0	0	489	
13	0	0	0	0	491	
14	0	0	0	0	492	
15	0	0	0	0	493	
0	0	0	0	0	495	
1	0	0	0	0	490	
2	0	0	0	0	478	
3	0	0	0	0	477	
4	0	0	0	0	484	
5	0	0	0	0	491	
6	0	0	0	0	494	
7	0	0	0	0	494	
8	0	0	0	0	498	
9	0	0	0	0	500	
10	0	0	0	0	502	
11	0	0	0	0	500	
12	0	0	0	0	501	
13	0	0	0	0	506	
14	0	0	0	0	509	
15	0	0	0	0	506	
0	0	0	0	0	503	
1	0	0	0	0	500	
2	0	0	0	0	499	
3	0	0	0	0	497	
4	0	0	0	0	493	
5	0	0	0	0	492	
6	0	0	0	0	494	
7	0	0	0	0	495	
8	0	0	0	0	496	
9	0	0	0	0	501	
10	0	0	0	0	503	
11	0	0	0	0	501	
12	0	0	0	0	498	
13	0	0	0	0	496	
14	0	0	0	0	497	
15	0	0	0	0	500	
0	0	0	0	0	502	
1	0	0	0	0	503	
2	0	0	0	0	504	
3	0	0	0	0	503	
4	0	0	0	0	502	
5	0	0	0	0	499	
6	0	0	0	0	501	
7	0	0	0	0	499	
8	0	0	0	0	496	
9	0	0	0	0	501	
10	0	0	0	0	503	
11	0	0	0	0	503	
12	0	0	0	0	507	
13	0	0	0	0	512	
14	0	0	0	0	514	
15	0	0	0	0	513	
0	0	0	0	0	513	
1	0	0	0	0	510	
2	0	0	0	0	506	
3	0	0	0	0	509	
4	0	0	0	0	514	
5	0	0	0	0	515	
6	0	0	0	0	508	
7	0	0	0	0	504	
8	0	0	0	0	502	
9	0	0	0	0	503	
10	0	0	0	0	508	
11	0	0	0	0	511	
12	0	0	0	0	512	
13	0	0	0	0	511	
14	0	0	0	0	512	
15	0	0	0	0	512	
0	0	0	0	0	512	
1	0	0	0	0	513	
2	0	0	0	0	510	
3	0	0	0	0	509	
4	0	0	0	0	509	
5	0	0	0	0	510	
6	0	0	0	0	515	
7	0	0	0	0	517	
8	0	0	0	0	514	
9	0	0	0	0	507	
10	0	0	0	0	502	
11	0	0	0	0	497	
12	0	0	0	0	488	
13	0	0	0	0	491	
14	0	0	0	0	501	
15	0	0	0	0	512	
0	0	0	0	0	516	
1	0	0	0	0	519	
2	0	0	0	0	523	
3	0	0	0	0	527	
4	0	0	0	0	523	
5	0	0	0	0	516	
6	0	0	0	0	508	
7	0	0	0	0	501	
8	0	0	0	0	496	
9	0	0	0	0	493	
10	0	0	0	0	496	
11	0	0	0	0	502	
12	0	0	0	0	506	
13	0	0	0	0	510	
14	0	0	0	0	511	
15	0	0	0	0	509	
0	0	0	0	0	508	
1	0	0	0	0	507	
2	0	0	0	0	506	
3	0	0	0	0	503	
4	0	0	0	0	502	
5	0	0	0	0	505	
6	0	0	0	0	504	
7	0	0	0	0	504	
8	0	0	0	0	502	
9	0	0	0	0	500	
10	0	0	0	0	502	
11	0	0	0	0	504	
12	0	0	0	0	504	
13	0	0	0	0	505	
14	0	0	0	0	506	
15	0	0	0	0	504	
0	0	0	0	0	503	
1	0	0	0	0	501	
2	0	0	0	0	504	
3	0	0	0	0	504	
4	0	0	0	0	502	
5	0	0	0	0	500	
6	0	0	0	0	500	
7	0	0	0	0	501	
8	0	0	0	0	504	
9	0	0	0	0	504	
10	0	0	0	0	504	
11	0	0	0	0	502	
12	0	0	0	0	500	
13	0	0	0	0	499	
14	0	0	0	0	501	
15	0	0	0	0	504	
0	0	0	0	0	508	
1	0	0	0	0	511	
2	0	0	0	0	512	
3	0	0	0	0	512	
4	0	0	0	0	511	
5	0	0	0	0	510	
6	0	0	0	0	507	
7	0	0	0	0	506	
8	0	0	0	0	508	
9	0	0	0	0	511	
10	0	0	0	0	513	
11	0	0	0	0	519	
12	0	0	0	0	522	
13	0	0	0	0	514	
14	0	0	0	0	508	
15	0	0	0	0	508	
0	0	0	0	0	508	
1	0	0	0	0	513	
2	0	0	0	0	515	
3	0	0	0	0	516	
4	0	0	0	0	517	
5	0	0	0	0	514	
6	0	0	0	0	510	
7	0	0	0	0	505	
8	0	0	0	0	501	
9	0	0	0	0	504	
10	0	0	0	0	506	
11	0	0	0	0	506	
12	0	0	0	0	502	
13	0	0	0	0	499	
14	0	0	0	0	502	
15	0	0	0	0	503	
0	0	0	0	0	508	
1	0	0	0	0	508	
2	0	0	0	0	505	
3	0	0	0	0	502	
4	0	0	0	0	504	
5	0	0	0	0	509	
6	0	0	0	0	512	
7	0	0	0	0	515	
8	0	0	0	0	516	
9	0	0	0	0	512	
10	0	0	0	0	510	
11	0	0	0	0	512	
12	0	0	0	0	510	
13	0	0	0	0	506	
14	0	0	0	0	505	
15	0	0	0	0	506	
0	0	0	0	0	506	
1	0	0	0	0	508	
2	0	0	0	0	511	
3	0	0	0	0	511	
4	0	0	0	0	511	
5	0	0	0	0	509	
6	0	0	0	0	506	
7	0	0	0	0	507	
8	0	0	0	0	510	
9	0	0	0	0	511	
10	0	0	0	0	511	
11	0	0	0	0	509	
12	0	0	0	0	508	
13	0	0	0	0	507	
14	0	0	0	0	507	
15	0	0	0	0	509	
0	0	0	0	0	510	
1	0	0	0	0	508	
2	0	0	0	0	509	
3	0	0	0	0	509	
4	0	0	0	0	510	
5	0	0	0	0	508	
6	0	0	0	0	506	
7	0	0	0	0	503	
8	0	0	0	0	499	
9	0	0	0	0	502	
10	0	0	0	0	508	
11	0	0	0	0	508	
12	0	0	0	0	500	
13	0	0	0	0	498	
14	0	0	0	0	502	
15	0	0	0	0	511	
0	0	0	0	0	518	
1	0	0	0	0	521	
2	0	0	0	0	521	
3	0	0	0	0	521	
4	0	0	0	0	519	
5	0	0	0	0	518	
6	0	0	0	0	513	
7	0	0	0	0	513	
8	0	0	0	0	513	
9	0	0	0	0	514	
10	0	0	0	0	513	
11	0	0	0	0	510	
12	0	0	0	0	512	
13	0	0	0	0	512	
14	0	0	0	0	512	
15	0	0	0	0	512	
0	0	0	0	0	517	
1	0	0	0	0	521	
2	0	0	0	0	518	
3	0	0	0	0	510	
4	0	0	0	0	503	
5	0	0	0	0	505	
6	0	0	0	0	515	
7	0	0	0	0	527	
8	0	0	0	0	527	
9	0	0	0	0	526	
10	0	0	0	0	527	
11	0	0	0	0	523	
12	0	0	0	0	519	
13	0	0	0	0	515	
14	0	0	0	0	511	
15	0	0	0	0	510	
0	0	0	0	0	512	
1	0	0	0	0	516	
2	0	0	0	0	522	
3	0	0	0	0	526	
4	0	0	0	0	525	
5	0	0	0	0	524	
6	0	0	0	0	526	
7	0	0	0	0	524	
8	0	0	0	0	526	
9	0	0	0	0	527	
10	0	0	0	0	528	
11	0	0	0	0	527	
12	0	0	0	0	523	
13	0	0	0	0	517	
14	0	0	0	0	511	
15	0	0	0	0	509	
0	0	0	0	0	508	
1	0	0	0	0	507	
2	0	0	0	0	511	
3	0	0	0	0	517	
4	0	0	0	0	518	
5	0	0	0	0	522	
6	0	0	0	0	525	
7	0	0	0	0	527	
8	0	0	0	0	529	
9	0	0	0	0	530	
10	0	0	0	0	529	
11	0	0	0	0	526	
12	0	0	0	0	523	
13	0	0	0	0	524	
14	0	0	0	0	526	
15	0	0	0	0	525	
0	0	0	0	0	526	
1	0	0	0	0	525	
2	0	0	0	0	520	
3	0	0	0	0	516	
4	0	0	0	0	513	
5	0	0	0	0	513	
6	0	0	0	0	515	
7	0	0	0	0	517	
8	0	0	0	0	517	
9	0	0	0	0	518	
10	0	0	0	0	518	
11	0	0	0	0	515	
12	0	0	0	0	512	
13	0	0	0	0	507	
14	0	0	0	0	503	
15	0	0	0	0	500	
0	0	0	0	0	502	
1	0	0	0	0	502	
2	0	0	0	0	501	
3	0	0	0	0	500	
4	0	0	0	0	499	
5	0	0	0	0	498	
6	0	0	0	0	497	
7	0	0	0	0	498	
8	0	0	0	0	504	
9	0	0	0	0	511	
10	0	0	0	0	510	
11	0	0	0	0	506	
12	0	0	0	0	512	
13	0	0	0	0	518	
14	0	0	0	0	515	
15	0	0	0	0	512	
0	0	0	0	0	511	
1	0	0	0	0	507	
2	0	0	0	0	509	
3	0	0	0	0	509	
4	0	0	0	0	510	
5	0	0	0	0	508	
6	0	0	0	0	510	
7	0	0	0	0	516	
8	0	0	0	0	516	
9	0	0	0	0	512	
10	0	0	0	0	508	
11	0	0	0	0	512	
12	0	0	0	0	518	
13	0	0	0	0	520	
14	0	0	0	0	519	
15	0	0	0	0	518	
0	0	0	0	0	516	
1	0	0	0	0	512	
2	0	0	0	0	508	
3	0	0	0	0	501	
4	0	0	0	0	492	
5	0	0	0	0	494	
6	0	0	0	0	502	
7	0	0	0	0	504	
8	0	0	0	0	503	
9	0	0	0	0	508	
10	0	0	0	0	512	
11	0	0	0	0	512	
12	0	0	0	0	513	
13	0	0	0	0	518	
14	0	0	0	0	520	
15	0	0	0	0	519	
0	0	0	0	0	514	
1	0	0	0	0	508	
2	0	0	0	0	506	
3	0	0	0	0	504	
4	0	0	0	0	502	
5	0	0	0	0	503	
6	0	0	0	0	503	
7	0	0	0	0	503	
8	0	0	0	0	505	
9	0	0	0	0	509	
10	0	0	0	0	512	
11	0	0	0	0	515	
12	0	0	0	0	516	
13	0	0	0	0	514	
14	0	0	0	0	514	
15	0	0	0	0	515	
0	0	0	0	0	518	
1	0	0	0	0	522	
2	0	0	0	0	525	
3	0	0	0	0	528	
4	0	0	0	0	532	
5	0	0	0	0	536	
6	0	0	0	0	546	
7	0	0	0	0	557	
8	0	0	0	0	566	
9	0	0	0	0	577	
10	0	0	0	0	588	
11	0	0	0	0	599	
12	0	0	0	0	609	
13	0	0	0	0	620	
14	0	0	0	0	631	
15	0	0	0	0	643	
0	0	0	0	0	654	
1	0	0	0	0	660	
2	0	0	0	0	658	
3	0	0	0	0	656	
4	0	0	0	0	654	
5	0	0	0	0	649	
6	0	0	0	0	643	
7	0	0	0	0	639	
8	0	0	0	0	633	
9	0	0	0	0	631	
10	0	0	0	0	630	
11	0	0	0	0	632	
12	0	0	0	0	624	
13	0	0	0	0	607	
14	0	0	0	0	590	
15	0	0	0	0	574	
0	0	0	0	0	559	
1	0	0	0	0	542	
2	0	0	0	0	523	
3	0	0	0	0	506	
4	0	0	0	0	489	
5	0	0	0	0	472	
6	0	0	0	0	458	
7	0	0	0	0	454	
8	0	0	0	0	448	
9	0	0	0	0	443	
10	0	0	0	0	438	
11	0	0	0	0	439	
12	0	0	0	0	440	
13	0	0	0	0	437	
14	0	0	0	0	440	
15	0	0	0	0	448	
0	0	0	0	0	460	
1	0	0	0	0	468	
2	0	0	0	0	472	
3	0	0	0	0	473	
4	0	0	0	0	472	
5	0	0	0	0	473	
6	0	0	0	0	474	
7	0	0	0	0	476	
8	0	0	0	0	480	
9	0	0	0	0	480	
10	0	0	0	0	482	
11	0	0	0	0	483	
12	0	0	0	0	484	
13	0	0	0	0	482	
14	0	0	0	0	480	
15	0	0	0	0	484	
0	0	0	0	0	489	
1	0	0	0	0	493	
2	0	0	0	0	494	
3	0	0	0	0	494	
4	0	0	0	0	496	
5	0	0	0	0	493	
6	0	0	0	0	491	
7	0	0	0	0	488	
8	0	0	0	0	491	
9	0	0	0	0	492	
10	0	0	0	0	491	
11	0	0	0	0	493	
12	0	0	0	0	495	
13	0	0	0	0	494	
14	0	0	0	0	494	
15	0	0	0	0	500	
0	0	0	0	0	501	
1	0	0	0	0	499	
2	0	0	0	0	499	
3	0	0	0	0	498	
4	0	0	0	0	495	
5	0	0	0	0	493	
6	0	0	0	0	494	
7	0	0	0	0	493	
8	0	0	0	0	491	
9	0	0	0	0	495	
10	0	0	0	0	497	
11	0	0	0	0	495	
12	0	0	0	0	497	
13	0	0	0	0	506	
14	0	0	0	0	512	
15	0	0	0	0	512	
0	0	0	0	0	511	
1	0	0	0	0	510	
2	0	0	0	0	508	
3	0	0	0	0	507	
4	0	0	0	0	505	
5	0	0	0	0	506	
6	0	0	0	0	505	
7	0	0	0	0	500	
8	0	0	0	0	496	
9	0	0	0	0	500	
10	0	0	0	0	504	
11	0	0	0	0	504	
12	0	0	0	0	502	
13	0	0	0	0	507	
14	0	0	0	0	512	
15	0	0	0	0	510	
0	0	0	0	0	509	
1	0	0	0	0	513	
2	0	0	0	0	511	
3	0	0	0	0	507	
4	0	0	0	0	507	
5	0	0	0	0	506	
6	0	0	0	0	507	
7	0	0	0	0	508	
8	0	0	0	0	508	
9	0	0	0	0	510	
10	0	0	0	0	511	
11	0	0	0	0	512	
12	0	0	0	0	513	
13	0	0	0	0	515	
14	0	0	0	0	517	
15	0	0	0	0	521	
0	0	0	0	0	523	
1	0	0	0	0	518	
2	0	0	0	0	511	
3	0	0	0	0	510	
4	0	0	0	0	513	
5	0	0	0	0	522	
6	0	0	0	0	527	
7	0	0	0	0	520	
8	0	0	0	0	505	
9	0	0	0	0	494	
10	0	0	0	0	495	
11	0	0	0	0	505	
12	0	0	0	0	514	
13	0	0	0	0	520	
14	0	0	0	0	525	
15	0	0	0	0	524	
0	0	0	0	0	523	
1	0	0	0	0	527	
2	0	0	0	0	526	
3	0	0	0	0	523	
4	0	0	0	0	521	
5	0	0	0	0	522	
6	0	0	0	0	520	
7	0	0	0	0	521	
8	0	0	0	0	518	
9	0	0	0	0	516	
10	0	0	0	0	516	
11	0	0	0	0	518	
12	0	0	0	0	516	
13	0	0	0	0	513	
14	0	0	0	0	512	
15	0	0	0	0	517	
0	0	0	0	0	519	
1	0	0	0	0	519	
2	0	0	0	0	518	
3	0	0	0	0	520	
4	0	0	0	0	524	
5	0	0	0	0	527	
6	0	0	0	0	525	
7	0	0	0	0	521	
8	0	0	0	0	517	
9	0	0	0	0	514	
10	0	0	0	0	513	
11	0	0	0	0	512	
12	0	0	0	0	514	
13	0	0	0	0	514	
14	0	0	0	0	516	
15	0	0	0	0	519	
0	0	0	0	0	524	
1	0	0	0	0	525	
2	0	0	0	0	526	
3	0	0	0	0	527	
4	0	0	0	0	527	
5	0	0	0	0	526	
6	0	0	0	0	525	
7	0	0	0	0	525	
8	0	0	0	0	523	
9	0	0	0	0	521	
10	0	0	0	0	519	
11	0	0	0	0	519	
12	0	0	0	0	523	
13	0	0	0	0	525	
14	0	0	0	0	524	
15	0	0	0	0	526	
0	0	0	0	0	532	
1	0	0	0	0	538	
2	0	0	0	0	536	
3	0	0	0	0	535	
4	0	0	0	0	536	
5	0	0	0	0	540	
6	0	0	0	0	543	
7	0	0	0	0	541	
8	0	0	0	0	535	
9	0	0	0	0	533	
10	0	0	0	0	534	
11	0	0	0	0	535	
12	0	0	0	0	536	
13	0	0	0	0	529	
14	0	0	0	0	528	
15	0	0	0	0	532	
0	0	0	0	0	536	
1	0	0	0	0	537	
2	0	0	0	0	537	
3	0	0	0	0	539	
4	0	0	0	0	545	
5	0	0	0	0	550	
6	0	0	0	0	551	
7	0	0	0	0	547	
8	0	0	0	0	544	
9	0	0	0	0	542	
10	0	0	0	0	536	
11	0	0	0	0	533	
12	0	0	0	0	536	
13	0	0	0	0	535	
14	0	0	0	0	534	
15	0	0	0	0	533	
0	0	0	0	0	531	
1	0	0	0	0	524	
2	0	0	0	0	524	
3	0	0	0	0	530	
4	0	0	0	0	539	
5	0	0	0	0	543	
6	0	0	0	0	544	
7	0	0	0	0	540	
8	0	0	0	0	537	
9	0	0	0	0	537	
10	0	0	0	0	536	
11	0	0	0	0	537	
12	0	0	0	0	537	
13	0	0	0	0	536	
14	0	0	0	0	538	
15	0	0	0	0	535	
0	0	0	0	0	529	
1	0	0	0	0	527	
2	0	0	0	0	529	
3	0	0	0	0	533	
4	0	0	0	0	536	
5	0	0	0	0	534	
6	0	0	0	0	531	
7	0	0	0	0	529	
8	0	0	0	0	529	
9	0	0	0	0	525	
10	0	0	0	0	521	
11	0	0	0	0	519	
12	0	0	0	0	516	
13	0	0	0	0	514	
14	0	0	0	0	513	
15	0	0	0	0	511	
0	0	0	0	0	511	
1	0	0	0	0	510	
2	0	0	0	0	507	
3	0	0	0	0	505	
4	0	0	0	0	508	
5	0	0	0	0	511	
6	0	0	0	0	511	
7	0	0	0	0	512	
8	0	0	0	0	508	
9	0	0	0	0	506	
10	0	0	0	0	505	
11	0	0	0	0	504	
12	0	0	0	0	503	
13	0	0	0	0	500	
14	0	0	0	0	496	
15	0	0	0	0	494	
0	0	0	0	0	491	
1	0	0	0	0	487	
2	0	0	0	0	487	
3	0	0	0	0	489	
4	0	0	0	0	499	
5	0	0	0	0	506	
6	0	0	0	0	504	
7	0	0	0	0	497	
8	0	0	0	0	494	
9	0	0	0	0	490	
10	0	0	0	0	487	
11	0	0	0	0	484	
12	0	0	0	0	480	
13	0	0	0	0	482	
14	0	0	0	0	486	
15	0	0	0	0	485	
0	0	0	0	0	486	
1	0	0	0	0	483	
2	0	0	0	0	482	
3	0	0	0	0	483	
4	0	0	0	0	487	
5	0	0	0	0	486	
6	0	0	0	0	486	
7	0	0	0	0	492	
8	0	0	0	0	493	
9	0	0	0	0	491	
10	0	0	0	0	487	
11	0	0	0	0	487	
12	0	0	0	0	487	
13	0	0	0	0	487	
14	0	0	0	0	484	
15	0	0	0	0	485	
0	0	0	0	0	483	
1	0	0	0	0	479	
2	0	0	0	0	478	
3	0	0	0	0	479	
4	0	0	0	0	482	
5	0	0	0	0	481	
6	0	0	0	0	480	
7	0	0	0	0	482	
8	0	0	0	0	485	
9	0	0	0	0	484	
10	0	0	0	0	485	
11	0	0	0	0	486	
12	0	0	0	0	489	
13	0	0	0	0	488	
14	0	0	0	0	483	
15	0	0	0	0	480	
0	0	0	0	0	479	
1	0	0	0	0	478	
2	0	0	0	0	478	
3	0	0	0	0	480	
4	0	0	0	0	483	
5	0	0	0	0	489	
6	0	0	0	0	492	
7	0	0	0	0	492	
8	0	0	0	0	493	
9	0	0	0	0	492	
10	0	0	0	0	487	
11	0	0	0	0	484	
12	0	0	0	0	481	
13	0	0	0	0	480	
14	0	0	0	0	475	
15	0	0	0	0	476	
0	0	0	0	0	480	
1	0	0	0	0	486	
2	0	0	0	0	486	
3	0	0	0	0	483	
4	0	0	0	0	485	
5	0	0	0	0	487	
6	0	0	0	0	488	
7	0	0	0	0	492	
8	0	0	0	0	497	
9	0	0	0	0	498	
10	0	0	0	0	496	
11	0	0	0	0	495	
12	0	0	0	0	494	
13	0	0	0	0	494	
14	0	0	0	0	494	
15	0	0	0	0	493	
0	0	0	0	0	492	
1	0	0	0	0	494	
2	0	0	0	0	493	
3	0	0	0	0	493	
4	0	0	0	0	492	
5	0	0	0	0	493	
6	0	0	0	0	497	
7	0	0	0	0	500	
8	0	0	0	0	500	
9	0	0	0	0	503	
10	0	0	0	0	506	
11	0	0	0	0	505	
12	0	0	0	0	503	
13	0	0	0	0	501	
14	0	0	0	0	500	
15	0	0	0	0	502	
0	0	0	0	0	501	
1	0	0	0	0	500	
2	0	0	0	0	501	
3	0	0	0	0	504	
4	0	0	0	0	505	
5	0	0	0	0	505	
6	0	0	0	0	505	
7	0	0	0	0	509	
8	0	0	0	0	517	
9	0	0	0	0	524	
10	0	0	0	0	522	
11	0	0	0	0	516	
12	0	0	0	0	512	
13	0	0	0	0	510	
14	0	0	0	0	507	
15	0	0	0	0	506	
0	0	0	0	0	502	
1	0	0	0	0	499	
2	0	0	0	0	501	
3	0	0	0	0	500	
4	0	0	0	0	499	
5	0	0	0	0	505	
6	0	0	0	0	506	
7	0	0	0	0	504	
8	0	0	0	0	502	
9	0	0	0	0	501	
10	0	0	0	0	500	
11	0	0	0	0	503	
12	0	0	0	0	509	
13	0	0	0	0	515	
14	0	0	0	0	516	
15	0	0	0	0	515	
0	0	0	0	0	512	
1	0	0	0	0	509	
2	0	0	0	0	506	
3	0	0	0	0	505	
4	0	0	0	0	503	
5	0	0	0	0	502	
6	0	0	0	0	504	
7	0	0	0	0	505	
8	0	0	0	0	503	
9	0	0	0	0	506	
10	0	0	0	0	508	
11	0	0	0	0	507	
12	0	0	0	0	508	
13	0	0	0	0	511	
14	0	0	0	0	512	
15	0	0	0	0	513	
0	0	0	0	0	512	
1	0	0	0	0	510	
2	0	0	0	0	509	
3	0	0	0	0	508	
4	0	0	0	0	505	
5	0	0	0	0	502	
6	0	0	0	0	501	
7	0	0	0	0	503	
8	0	0	0	0	507	
9	0	0	0	0	513	
10	0	0	0	0	514	
11	0	0	0	0	517	
12	0	0	0	0	516	
13	0	0	0	0	513	
14	0	0	0	0	512	
15	0	0	0	0	510	
0	0	0	0	0	497	
1	0	0	0	0	492	
2	0	0	0	0	495	
3	0	0	0	0	502	
4	0	0	0	0	508	
5	0	0	0	0	514	
6	0	0	0	0	518	
7	0	0	0	0	522	
8	0	0	0	0	517	
9	0	0	0	0	511	
10	0	0	0	0	510	
11	0	0	0	0	516	
12	0	0	0	0	517	
13	0	0	0	0	514	
14	0	0	0	0	512	
15	0	0	0	0	513	
0	0	0	0	0	513	
1	0	0	0	0	513	
2	0	0	0	0	511	
3	0	0	0	0	510	
4	0	0	0	0	512	
5	0	0	0	0	513	
6	0	0	0	0	510	
7	0	0	0	0	505	
8	0	0	0	0	505	
9	0	0	0	0	505	
10	0	0	0	0	507	
11	0	0	0	0	509	
12	0	0	0	0	508	
13	0	0	0	0	507	
14	0	0	0	0	506	
15	0	0	0	0	507	
0	0	0	0	0	512	
1	0	0	0	0	515	
2	0	0	0	0	516	
3	0	0	0	0	513	
4	0	0	0	0	510	
5	0	0	0	0	510	
6	0	0	0	0	512	
7	0	0	0	0	511	
8	0	0	0	0	509	
9	0	0	0	0	508	
10	0	0	0	0	506	
11	0	0	0	0	504	
12	0	0	0	0	508	
13	0	0	0	0	513	
14	0	0	0	0	514	
15	0	0	0	0	517	
0	0	0	0	0	519	
1	0	0	0	0	518	
2	0	0	0	0	516	
3	0	0	0	0	511	
4	0	0	0	0	510	
5	0	0	0	0	511	
6	0	0	0	0	511	
7	0	0	0	0	508	
8	0	0	0	0	503	
9	0	0	0	0	501	
10	0	0	0	0	501	
11	0	0	0	0	506	
12	0	0	0	0	513	
13	0	0	0	0	515	
14	0	0	0	0	517	
15	0	0	0	0	516	
0	0	0	0	0	514	
1	0	0	0	0	511	
2	0	0	0	0	506	
3	0	0	0	0	504	
4	0	0	0	0	505	
5	0	0	0	0	502	
6	0	0	0	0	501	
7	0	0	0	0	502	
8	0	0	0	0	501	
9	0	0	0	0	501	
10	0	0	0	0	505	
11	0	0	0	0	509	
12	0	0	0	0	512	
13	0	0	0	0	512	
14	0	0	0	0	513	
15	0	0	0	0	515	
0	0	0	0	0	515	
1	0	0	0	0	515	
2	0	0	0	0	517	
3	0	0	0	0	516	
4	0	0	0	0	510	
5	0	0	0	0	509	
6	0	0	0	0	506	
7	0	0	0	0	504	
8	0	0	0	0	506	
9	0	0	0	0	511	
10	0	0	0	0	510	
11	0	0	0	0	504	
12	0	0	0	0	491	
13	0	0	0	0	489	
14	0	0	0	0	497	
15	0	0	0	0	509	
0	0	0	0	0	515	
1	0	0	0	0	518	
2	0	0	0	0	523	
3	0	0	0	0	526	
4	0	0	0	0	525	
5	0	0	0	0	519	
6	0	0	0	0	514	
7	0	0	0	0	512	
8	0	0	0	0	512	
9	0	0	0	0	510	
10	0	0	0	0	506	
11	0	0	0	0	503	
12	0	0	0	0	504	
13	0	0	0	0	506	
14	0	0	0	0	508	
15	0	0	0	0	513	
0	0	0	0	0	522	
1	0	0	0	0	522	
2	0	0	0	0	522	
3	0	0	0	0	525	
4	0	0	0	0	527	
5	0	0	0	0	525	
6	0	0	0	0	525	
7	0	0	0	0	523	
8	0	0	0	0	520	
9	0	0	0	0	518	
10	0	0	0	0	517	
11	0	0	0	0	519	
12	0	0	0	0	519	
13	0	0	0	0	517	
14	0	0	0	0	518	
15	0	0	0	0	523	
0	0	0	0	0	523	
1	0	0	0	0	522	
2	0	0	0	0	520	
3	0	0	0	0	519	
4	0	0	0	0	519	
5	0	0	0	0	525	
6	0	0	0	0	529	
7	0	0	0	0	529	
8	0	0	0	0	529	
9	0	0	0	0	527	
10	0	0	0	0	525	
11	0	0	0	0	524	
12	0	0	0	0	527	
13	0	0	0	0	530	
14	0	0	0	0	527	
15	0	0	0	0	525	
0	0	0	0	0	523	
1	0	0	0	0	523	
2	0	0	0	0	522	
3	0	0	0	0	520	
4	0	0	0	0	515	
5	0	0	0	0	513	
6	0	0	0	0	515	
7	0	0	0	0	515	
8	0	0	0	0	510	
9	0	0	0	0	508	
10	0	0	0	0	506	
11	0	0	0	0	504	
12	0	0	0	0	503	
13	0	0	0	0	502	
14	0	0	0	0	501	
15	0	0	0	0	500	
0	0	0	0	0	501	
1	0	0	0	0	504	
2	0	0	0	0	506	
3	0	0	0	0	507	
4	0	0	0	0	509	
5	0	0	0	0	508	
6	0	0	0	0	504	
7	0	0	0	0	501	
8	0	0	0	0	497	
9	0	0	0	0	487	
10	0	0	0	0	483	
11	0	0	0	0	488	
12	0	0	0	0	499	
13	0	0	0	0	507	
14	0	0	0	0	511	
15	0	0	0	0	514	
0	0	0	0	0	518	
1	0	0	0	0	517	
2	0	0	0	0	512	
3	0	0	0	0	510	
4	0	0	0	0	510	
5	0	0	0	0	509	
6	0	0	0	0	511	
7	0	0	0	0	513	
8	0	0	0	0	513	
9	0	0	0	0	512	
10	0	0	0	0	513	
11	0	0	0	0	511	
12	0	0	0	0	507	
13	0	0	0	0	505	
14	0	0	0	0	503	
15	0	0	0	0	501	
0	0	0	0	0	505	
1	0	0	0	0	509	
2	0	0	0	0	512	
3	0	0	0	0	510	
4	0	0	0	0	506	
5	0	0	0	0	506	
6	0	0	0	0	507	
7	0	0	0	0	507	
8	0	0	0	0	505	
9	0	0	0	0	504	
10	0	0	0	0	504	
11	0	0	0	0	503	
12	0	0	0	0	499	
13	0	0	0	0	497	
14	0	0	0	0	498	
15	0	0	0	0	498	
0	0	0	0	0	493	
1	0	0	0	0	494	
2	0	0	0	0	500	
3	0	0	0	0	506	
4	0	0	0	0	507	
5	0	0	0	0	508	
6	0	0	0	0	510	
7	0	0	0	0	510	
8	0	0	0	0	508	
9	0	0	0	0	510	
10	0	0	0	0	508	
11	0	0	0	0	507	
12	0	0	0	0	505	
13	0	0	0	0	504	
14	0	0	0	0	502	
15	0	0	0	0	499	
0	0	0	0	0	502	
1	0	0	0	0	505	
2	0	0	0	0	508	
3	0	0	0	0	513	
4	0	0	0	0	522	
5	0	0	0	0	534	
6	0	0	0	0	542	
7	0	0	0	0	550	
8	0	0	0	0	558	
9	0	0	0	0	569	
10	0	0	0	0	581	
11	0	0	0	0	588	
12	0	0	0	0	596	
13	0	0	0	0	604	
14	0	0	0	0	610	
15	0	0	0	0	619	
0	0	0	0	0	632	
1	0	0	0	0	643	
2	0	0	0	0	652	
3	0	0	0	0	659	
4	0	0	0	0	670	
5	0	0	0	0	673	
6	0	0	0	0	667	
7	0	0	0	0	660	
8	0	0	0	0	654	
9	0	0	0	0	649	
10	0	0	0	0	643	
11	0	0	0	0	636	
12	0	0	0	0	626	
13	0	0	0	0	613	
14	0	0	0	0	598	
15	0	0	0	0	582	
0	0	0	0	0	565	
1	0	0	0	0	549	
2	0	0	0	0	536	
3	0	0	0	0	525	
4	0	0	0	0	513	
5	0	0	0	0	496	
6	0	0	0	0	480	
7	0	0	0	0	464	
8	0	0	0	0	451	
9	0	0	0	0	442	
10	0	0	0	0	435	
11	0	0	0	0	431	
12	0	0	0	0	430	
13	0	0	0	0	435	
14	0	0	0	0	442	
15	0	0	0	0	447	
0	0	0	0	0	446	
1	0	0	0	0	444	
2	0	0	0	0	447	
3	0	0	0	0	452	
4	0	0	0	0	460	
5	0	0	0	0	465	
6	0	0	0	0	470	
7	0	0	0	0	473	
8	0	0	0	0	478	
9	0	0	0	0	480	
10	0	0	0	0	479	
11	0	0	0	0	478	
12	0	0	0	0	477	
13	0	0	0	0	473	
14	0	0	0	0	472	
15	0	0	0	0	473	
0	0	0	0	0	473	
1	0	0	0	0	473	
2	0	0	0	0	472	
3	0	0	0	0	476	
4	0	0	0	0	481	
5	0	0	0	0	479	
6	0	0	0	0	472	
7	0	0	0	0	472	
8	0	0	0	0	480	
9	0	0	0	0	487	
10	0	0	0	0	492	
11	0	0	0	0	497	
12	0	0	0	0	500	
13	0	0	0	0	499	
14	0	0	0	0	493	
15	0	0	0	0	490	
0	0	0	0	0	486	
1	0	0	0	0	485	
2	0	0	0	0	483	
3	0	0	0	0	487	
4	0	0	0	0	494	
5	0	0	0	0	492	
6	0	0	0	0	496	
7	0	0	0	0	494	
8	0	0	0	0	492	
9	0	0	0	0	493	
10	0	0	0	0	493	
11	0	0	0	0	498	
12	0	0	0	0	500	
13	0	0	0	0	500	
14	0	0	0	0	497	
15	0	0	0	0	494	
0	0	0	0	0	492	
1	0	0	0	0	493	
2	0	0	0	0	496	
3	0	0	0	0	497	
4	0	0	0	0	499	
5	0	0	0	0	496	
6	0	0	0	0	494	
7	0	0	0	0	495	
8	0	0	0	0	496	
9	0	0	0	0	500	
10	0	0	0	0	498	
11	0	0	0	0	499	
12	0	0	0	0	500	
13	0	0	0	0	498	
14	0	0	0	0	497	
15	0	0	0	0	497	
0	0	0	0	0	497	
1	0	0	0	0	497	
2	0	0	0	0	499	
3	0	0	0	0	501	
4	0	0	0	0	502	
5	0	0	0	0	504	
6	0	0	0	0	502	
7	0	0	0	0	499	
8	0	0	0	0	501	
9	0	0	0	0	506	
10	0	0	0	0	509	
11	0	0	0	0	505	
12	0	0	0	0	500	
13	0	0	0	0	499	
14	0	0	0	0	502	
15	0	0	0	0	508	
0	0	0	0	0	509	
1	0	0	0	0	508	
2	0	0	0	0	505	
3	0	0	0	0	502	
4	0	0	0	0	502	
5	0	0	0	0	503	
6	0	0	0	0	506	
7	0	0	0	0	513	
8	0	0	0	0	517	
9	0	0	0	0	515	
10	0	0	0	0	512	
11	0	0	0	0	512	
12	0	0	0	0	514	
13	0	0	0	0	513	
14	0	0	0	0	512	
15	0	0	0	0	513	
0	0	0	0	0	511	
1	0	0	0	0	509	
2	0	0	0	0	510	
3	0	0	0	0	512	
4	0	0	0	0	510	
5	0	0	0	0	507	
6	0	0	0	0	507	
7	0	0	0	0	504	
8	0	0	0	0	504	
9	0	0	0	0	509	
10	0	0	0	0	513	
11	0	0	0	0	515	
12	0	0	0	0	514	
13	0	0	0	0	515	
14	0	0	0	0	519	
15	0	0	0	0	519	
0	0	0	0	0	513	
1	0	0	0	0	510	
2	0	0	0	0	511	
3	0	0	0	0	514	
4	0	0	0	0	515	
5	0	0	0	0	515	
6	0	0	0	0	515	
7	0	0	0	0	519	
8	0	0	0	0	521	
9	0	0	0	0	525	
10	0	0	0	0	525	
11	0	0	0	0	524	
12	0	0	0	0	524	
13	0	0	0	0	522	
14	0	0	0	0	519	
15	0	0	0	0	515	
0	0	0	0	0	515	
1	0	0	0	0	517	
2	0	0	0	0	520	
3	0	0	0	0	519	
4	0	0	0	0	510	
5	0	0	0	0	505	
6	0	0	0	0	507	
7	0	0	0	0	515	
8	0	0	0	0	521	
9	0	0	0	0	523	
10	0	0	0	0	524	
11	0	0	0	0	527	
12	0	0	0	0	528	
13	0	0	0	0	529	
14	0	0	0	0	529	
15	0	0	0	0	527	
0	0	0	0	0	526	
1	0	0	0	0	529	
2	0	0	0	0	533	
3	0	0	0	0	535	
4	0	0	0	0	537	
5	0	0	0	0	537	
6	0	0	0	0	532	
7	0	0	0	0	530	
8	0	0	0	0	530	
9	0	0	0	0	531	
10	0	0	0	0	534	
11	0	0	0	0	531	
12	0	0	0	0	531	
13	0	0	0	0	533	
14	0	0	0	0	535	
15	0	0	0	0	536	
0	0	0	0	0	533	
1	0	0	0	0	531	
2	0	0	0	0	530	
3	0	0	0	0	527	
4	0	0	0	0	527	
5	0	0	0	0	527	
6	0	0	0	0	527	
7	0	0	0	0	530	
8	0	0	0	0	534	
9	0	0	0	0	539	
10	0	0	0	0	542	
11	0	0	0	0	540	
12	0	0	0	0	536	
13	0	0	0	0	536	
14	0	0	0	0	539	
15	0	0	0	0	543	
0	0	0	0	0	542	
1	0	0	0	0	537	
2	0	0	0	0	533	
3	0	0	0	0	533	
4	0	0	0	0	534	
5	0	0	0	0	532	
6	0	0	0	0	530	
7	0	0	0	0	528	
8	0	0	0	0	527	
9	0	0	0	0	530	
10	0	0	0	0	530	
11	0	0	0	0	530	
12	0	0	0	0	534	
13	0	0	0	0	536	
14	0	0	0	0	536	
15	0	0	0	0	533	
0	0	0	0	0	531	
1	0	0	0	0	534	
2	0	0	0	0	533	
3	0	0	0	0	527	
4	0	0	0	0	522	
5	0	0	0	0	519	
6	0	0	0	0	519	
7	0	0	0	0	519	
8	0	0	0	0	519	
9	0	0	0	0	515	
10	0	0	0	0	512	
11	0	0	0	0	519	
12	0	0	0	0	527	
13	0	0	0	0	530	
14	0	0	0	0	530	
15	0	0	0	0	530	
0	0	0	0	0	527	
1	0	0	0	0	524	
2	0	0	0	0	519	
3	0	0	0	0	513	
4	0	0	0	0	505	
5	0	0	0	0	499	
6	0	0	0	0	499	
7	0	0	0	0	500	
8	0	0	0	0	502	
9	0	0	0	0	502	
10	0	0	0	0	503	
11	0	0	0	0	504	
12	0	0	0	0	502	
13	0	0	0	0	502	
14	0	0	0	0	500	
15	0	0	0	0	498	
0	0	0	0	0	496	
1	0	0	0	0	497	
2	0	0	0	0	497	
3	0	0	0	0	497	
4	0	0	0	0	495	
5	0	0	0	0	489	
6	0	0	0	0	479	
7	0	0	0	0	470	
8	0	0	0	0	471	
9	0	0	0	0	479	
10	0	0	0	0	492	
11	0	0	0	0	499	
12	0	0	0	0	500	
13	0	0	0	0	499	
14	0	0	0	0	497	
15	0	0	0	0	495	
0	0	0	0	0	492	
1	0	0	0	0	489	
2	0	0	0	0	490	
3	0	0	0	0	493	
4	0	0	0	0	493	
5	0	0	0	0	492	
6	0	0	0	0	487	
7	0	0	0	0	486	
8	0	0	0	0	480	
9	0	0	0	0	475	
10	0	0	0	0	474	
11	0	0	0	0	480	
12	0	0	0	0	484	
13	0	0	0	0	484	
14	0	0	0	0	487	
15	0	0	0	0	490	
0	0	0	0	0	490	
1	0	0	0	0	488	
2	0	0	0	0	489	
3	0	0	0	0	489	
4	0	0	0	0	487	
5	0	0	0	0	488	
6	0	0	0	0	487	
7	0	0	0	0	486	
8	0	0	0	0	486	
9	0	0	0	0	485	
10	0	0	0	0	486	
11	0	0	0	0	487	
12	0	0	0	0	488	
13	0	0	0	0	491	
14	0	0	0	0	493	
15	0	0	0	0	498	
0	0	0	0	0	499	
1	0	0	0	0	499	
2	0	0	0	0	497	
3	0	0	0	0	493	
4	0	0	0	0	491	
5	0	0	0	0	490	
6	0	0	0	0	490	
7	0	0	0	0	490	
8	0	0	0	0	489	
9	0	0	0	0	489	
10	0	0	0	0	490	
11	0	0	0	0	491	
12	0	0	0	0	492	
13	0	0	0	0	494	
14	0	0	0	0	493	
15	0	0	0	0	491	
0	0	0	0	0	491	
1	0	0	0	0	495	
2	0	0	0	0	497	
3	0	0	0	0	503	
4	0	0	0	0	500	
5	0	0	0	0	493	
6	0	0	0	0	488	
7	0	0	0	0	488	
8	0	0	0	0	489	
9	0	0	0	0	495	
10	0	0	0	0	498	
11	0	0	0	0	498	
12	0	0	0	0	496	
13	0	0	0	0	495	
14	0	0	0	0	496	
15	0	0	0	0	495	
0	0	0	0	0	494	
1	0	0	0	0	496	
2	0	0	0	0	495	
3	0	0	0	0	492	
4	0	0	0	0	494	
5	0	0	0	0	499	
6	0	0	0	0	500	
7	0	0	0	0	499	
8	0	0	0	0	499	
9	0	0	0	0	497	
10	0	0	0	0	494	
11	0	0	0	0	489	
12	0	0	0	0	486	
13	0	0	0	0	485	
14	0	0	0	0	486	
15	0	0	0	0	490	
0	0	0	0	0	493	
1	0	0	0	0	495	
2	0	0	0	0	500	
3	0	0	0	0	504	
4	0	0	0	0	505	
5	0	0	0	0	504	
6	0	0	0	0	504	
7	0	0	0	0	503	
8	0	0	0	0	503	
9	0	0	0	0	503	
10	0	0	0	0	503	
11	0	0	0	0	502	
12	0	0	0	0	500	
13	0	0	0	0	501	
14	0	0	0	0	497	
15	0	0	0	0	495	
0	0	0	0	0	496	
1	0	0	0	0	501	
2	0	0	0	0	504	
3	0	0	0	0	503	
4	0	0	0	0	504	
5	0	0	0	0	505	
6	0	0	0	0	506	
7	0	0	0	0	505	
8	0	0	0	0	504	
9	0	0	0	0	506	
10	0	0	0	0	506	
11	0	0	0	0	503	
12	0	0	0	0	501	
13	0	0	0	0	501	
14	0	0	0	0	500	
15	0	0	0	0	502	
0	0	0	0	0	507	
1	0	0	0	0	509	
2	0	0	0	0	509	
3	0	0	0	0	511	
4	0	0	0	0	505	
5	0	0	0	0	501	
6	0	0	0	0	502	
7	0	0	0	0	512	
8	0	0	0	0	520	
9	0	0	0	0	522	
10	0	0	0	0	521	
11	0	0	0	0	519	
12	0	0	0	0	515	
13	0	0	0	0	510	
14	0	0	0	0	505	
15	0	0	0	0	501	
0	0	0	0	0	499	
1	0	0	0	0	502	
2	0	0	0	0	503	
3	0	0	0	0	507	
4	0	0	0	0	511	
5	0	0	0	0	512	
6	0	0	0	0	512	
7	0	0	0	0	515	
8	0	0	0	0	521	
9	0	0	0	0	520	
10	0	0	0	0	513	
11	0	0	0	0	510	
12	0	0	0	0	509	
13	0	0	0	0	510	
14	0	0	0	0	508	
15	0	0	0	0	509	
0	0	0	0	0	509	
1	0	0	0	0	508	
2	0	0	0	0	505	
3	0	0	0	0	505	
4	0	0	0	0	509	
5	0	0	0	0	512	
6	0	0	0	0	510	
7	0	0	0	0	509	
8	0	0	0	0	508	
9	0	0	0	0	511	
10	0	0	0	0	515	
11	0	0	0	0	522	
12	0	0	0	0	528	
13	0	0	0	0	531	
14	0	0	0	0	524	
15	0	0	0	0	516	
0	0	0	0	0	517	
1	0	0	0	0	516	
2	0	0	0	0	515	
3	0	0	0	0	512	
4	0	0	0	0	513	
5	0	0	0	0	515	
6	0	0	0	0	514	
7	0	0	0	0	515	
8	0	0	0	0	515	
9	0	0	0	0	514	
10	0	0	0	0	512	
11	0	0	0	0	511	
12	0	0	0	0	514	
13	0	0	0	0	515	
14	0	0	0	0	513	
15	0	0	0	0	512	
0	0	0	0	0	512	
1	0	0	0	0	510	
2	0	0	0	0	508	
3	0	0	0	0	508	
4	0	0	0	0	506	
5	0	0	0	0	506	
6	0	0	0	0	508	
7	0	0	0	0	508	
8	0	0	0	0	509	
9	0	0	0	0	513	
10	0	0	0	0	514	
11	0	0	0	0	515	
12	0	0	0	0	513	
13	0	0	0	0	511	
14	0	0	0	0	510	
15	0	0	0	0	511	
0	0	0	0	0	509	
1	0	0	0	0	505	
2	0	0	0	0	502	
3	0	0	0	0	503	
4	0	0	0	0	504	
5	0	0	0	0	507	
6	0	0	0	0	501	
7	0	0	0	0	496	
8	0	0	0	0	499	
9	0	0	0	0	508	
10	0	0	0	0	515	
11	0	0	0	0	512	
12	0	0	0	0	508	
13	0	0	0	0	509	
14	0	0	0	0	513	
15	0	0	0	0	513	
0	0	0	0	0	512	
1	0	0	0	0	511	
2	0	0	0	0	510	
3	0	0	0	0	510	
4	0	0	0	0	511	
5	0	0	0	0	512	
6	0	0	0	0	512	
7	0	0	0	0	511	
8	0	0	0	0	508	
9	0	0	0	0	512	
10	0	0	0	0	516	
11	0	0	0	0	516	
12	0	0	0	0	518	
13	0	0	0	0	515	
14	0	0	0	0	509	
15	0	0	0	0	503	
0	0	0	0	0	501	
1	0	0	0	0	501	
2	0	0	0	0	507	
3	0	0	0	0	510	
4	0	0	0	0	507	
5	0	0	0	0	503	
6	0	0	0	0	503	
7	0	0	0	0	510	
8	0	0	0	0	516	
9	0	0	0	0	525	
10	0	0	0	0	529	
11	0	0	0	0	531	
12	0	0	0	0	526	
13	0	0	0	0	517	
14	0	0	0	0	511	
15	0	0	0	0	507	
0	0	0	0	0	503	
1	0	0	0	0	504	
2	0	0	0	0	507	
3	0	0	0	0	509	
4	0	0	0	0	509	
5	0	0	0	0	511	
6	0	0	0	0	510	
7	0	0	0	0	510	
8	0	0	0	0	506	
9	0	0	0	0	505	
10	0	0	0	0	508	
11	0	0	0	0	511	
12	0	0	0	0	511	
13	0	0	0	0	509	
14	0	0	0	0	508	
15	0	0	0	0	511	
0	0	0	0	0	515	
1	0	0	0	0	516	
2	0	0	0	0	516	
3	0	0	0	0	517	
4	0	0	0	0	513	
5	0	0	0	0	511	
6	0	0	0	0	515	
7	0	0	0	0	516	
8	0	0	0	0	515	
9	0	0	0	0	517	
10	0	0	0	0	520	
11	0	0	0	0	523	
12	0	0	0	0	523	
13	0	0	0	0	522	
14	0	0	0	0	520	
15	0	0	0	0	521	
0	0	0	0	0	525	
1	0	0	0	0	526	
2	0	0	0	0	521	
3	0	0	0	0	514	
4	0	0	0	0	512	
5	0	0	0	0	512	
6	0	0	0	0	511	
7	0	0	0	0	510	
8	0	0	0	0	508	
9	0	0	0	0	511	
10	0	0	0	0	518	
11	0	0	0	0	519	
12	0	0	0	0	517	
13	0	0	0	0	517	
14	0	0	0	0	520	
15	0	0	0	0	523	
0	0	0	0	0	524	
1	0	0	0	0	526	
2	0	0	0	0	526	
3	0	0	0	0	527	
4	0	0	0	0	526	
5	0	0	0	0	527	
6	0	0	0	0	529	
7	0	0	0	0	529	
8	0	0	0	0	525	
9	0	0	0	0	523	
10	0	0	0	0	521	
11	0	0	0	0	521	
12	0	0	0	0	520	
13	0	0	0	0	516	
14	0	0	0	0	514	
15	0	0	0	0	514	
0	0	0	0	0	514	
1	0	0	0	0	518	
2	0	0	0	0	516	
3	0	0	0	0	516	
4	0	0	0	0	514	
5	0	0	0	0	511	
6	0	0	0	0	513	
7	0	0	0	0	508	
8	0	0	0	0	497	
9	0	0	0	0	493	
10	0	0	0	0	501	
11	0	0	0	0	510	
12	0	0	0	0	506	
13	0	0	0	0	502	
14	0	0	0	0	499	
15	0	0	0	0	504	
0	0	0	0	0	511	
1	0	0	0	0	512	
2	0	0	0	0	508	
3	0	0	0	0	505	
4	0	0	0	0	507	
5	0	0	0	0	502	
6	0	0	0	0	504	
7	0	0	0	0	507	
8	0	0	0	0	509	
9	0	0	0	0	510	
10	0	0	0	0	510	
11	0	0	0	0	510	
12	0	0	0	0	513	
13	0	0	0	0	515	
14	0	0	0	0	513	
15	0	0	0	0	511	
0	0	0	0	0	509	
1	0	0	0	0	508	
2	0	0	0	0	509	
3	0	0	0	0	512	
4	0	0	0	0	511	
5	0	0	0	0	504	
6	0	0	0	0	498	
7	0	0	0	0	502	
8	0	0	0	0	505	
9	0	0	0	0	503	
10	0	0	0	0	498	
11	0	0	0	0	497	
12	0	0	0	0	504	
13	0	0	0	0	513	
14	0	0	0	0	516	
15	0	0	0	0	513	
0	0	0	0	0	513	
1	0	0	0	0	515	
2	0	0	0	0	515	
3	0	0	0	0	513	
4	0	0	0	0	511	
5	0	0	0	0	512	
6	0	0	0	0	512	
7	0	0	0	0	512	
8	0	0	0	0	509	
9	0	0	0	0	505	
10	0	0	0	0	503	
11	0	0	0	0	501	
12	0	0	0	0	505	
13	0	0	0	0	508	
14	0	0	0	0	502	
15	0	0	0	0	498	
0	0	0	0	0	494	
1	0	0	0	0	495	
2	0	0	0	0	496	
3	0	0	0	0	499	
4	0	0	0	0	503	
5	0	0	0	0	503	
6	0	0	0	0	502	
7	0	0	0	0	499	
8	0	0	0	0	497	
9	0	0	0	0	500	
10	0	0	0	0	506	
11	0	0	0	0	513	
12	0	0	0	0	519	
13	0	0	0	0	527	
14	0	0	0	0	536	
15	0	0	0	0	544	
0	0	0	0	0	555	
1	0	0	0	0	566	
2	0	0	0	0	577	
3	0	0	0	0	588	
4	0	0	0	0	599	
5	0	0	0	0	611	
6	0	0	0	0	621	
7	0	0	0	0	631	
8	0	0	0	0	640	
9	0	0	0	0	645	
10	0	0	0	0	651	
11	0	0	0	0	658	
12	0	0	0	0	666	
13	0	0	0	0	673	
14	0	0	0	0	677	
15	0	0	0	0	678	
0	0	0	0	0	676	
1	0	0	0	0	672	
2	0	0	0	0	669	
3	0	0	0	0	663	
4	0	0	0	0	655	
5	0	0	0	0	646	
6	0	0	0	0	633	
7	0	0	0	0	619	
8	0	0	0	0	606	
9	0	0	0	0	592	
10	0	0	0	0	576	
11	0	0	0	0	557	
12	0	0	0	0	539	
13	0	0	0	0	517	
14	0	0	0	0	496	
15	0	0	0	0	484	
0	0	0	0	0	476	
1	0	0	0	0	468	
2	0	0	0	0	461	
3	0	0	0	0	456	
4	0	0	0	0	457	
5	0	0	0	0	460	
6	0	0	0	0	458	
7	0	0	0	0	457	
8	0	0	0	0	457	
9	0	0	0	0	459	
10	0	0	0	0	459	
11	0	0	0	0	458	
12	0	0	0	0	459	
13	0	0	0	0	463	
14	0	0	0	0	469	
15	0	0	0	0	470	
0	0	0	0	0	471	
1	0	0	0	0	472	
2	0	0	0	0	472	
3	0	0	0	0	470	
4	0	0	0	0	468	
5	0	0	0	0	469	
6	0	0	0	0	472	
7	0	0	0	0	475	
8	0	0	0	0	477	
9	0	0	0	0	479	
10	0	0	0	0	480	
11	0	0	0	0	479	
12	0	0	0	0	478	
13	0	0	0	0	478	
14	0	0	0	0	474	
15	0	0	0	0	463	
0	0	0	0	0	460	
1	0	0	0	0	470	
2	0	0	0	0	484	
3	0	0	0	0	493	
4	0	0	0	0	497	
5	0	0	0	0	499	
6	0	0	0	0	499	
7	0	0	0	0	496	
8	0	0	0	0	491	
9	0	0	0	0	487	
10	0	0	0	0	483	
11	0	0	0	0	479	
12	0	0	0	0	480	
13	0	0	0	0	484	
14	0	0	0	0	490	
15	0	0	0	0	490	
0	0	0	0	0	490	
1	0	0	0	0	489	
2	0	0	0	0	491	
3	0	0	0	0	496	
4	0	0	0	0	499	
5	0	0	0	0	503	
6	0	0	0	0	500	
7	0	0	0	0	499	
8	0	0	0	0	497	
9	0	0	0	0	492	
10	0	0	0	0	490	
11	0	0	0	0	489	
12	0	0	0	0	487	
13	0	0	0	0	483	
14	0	0	0	0	485	
15	0	0	0	0	490	
0	0	0	0	0	494	
1	0	0	0	0	496	
2	0	0	0	0	498	
3	0	0	0	0	496	
4	0	0	0	0	490	
5	0	0	0	0	490	
6	0	0	0	0	492	
7	0	0	0	0	499	
8	0	0	0	0	510	
9	0	0	0	0	513	
10	0	0	0	0	511	
11	0	0	0	0	511	
12	0	0	0	0	505	
13	0	0	0	0	501	
14	0	0	0	0	499	
15	0	0	0	0	504	
0	0	0	0	0	508	
1	0	0	0	0	509	
2	0	0	0	0	505	
3	0	0	0	0	502	
4	0	0	0	0	502	
5	0	0	0	0	504	
6	0	0	0	0	502	
7	0	0	0	0	501	
8	0	0	0	0	503	
9	0	0	0	0	507	
10	0	0	0	0	505	
11	0	0	0	0	502	
12	0	0	0	0	499	
13	0	0	0	0	500	
14	0	0	0	0	495	
15	0	0	0	0	489	
0	0	0	0	0	496	
1	0	0	0	0	507	
2	0	0	0	0	514	
3	0	0	0	0	515	
4	0	0	0	0	512	
5	0	0	0	0	510	
6	0	0	0	0	512	
7	0	0	0	0	512	
8	0	0	0	0	512	
9	0	0	0	0	514	
10	0	0	0	0	514	
11	0	0	0	0	511	
12	0	0	0	0	506	
13	0	0	0	0	507	
14	0	0	0	0	510	
15	0	0	0	0	515	
0	0	0	0	0	515	
1	0	0	0	0	514	
2	0	0	0	0	512	
3	0	0	0	0	513	
4	0	0	0	0	515	
5	0	0	0	0	512	
6	0	0	0	0	512	
7	0	0	0	0	516	
8	0	0	0	0	515	
9	0	0	0	0	512	
10	0	0	0	0	513	
11	0	0	0	0	513	
12	0	0	0	0	510	
13	0	0	0	0	508	
14	0	0	0	0	504	
15	0	0	0	0	502	
0	0	0	0	0	503	
1	0	0	0	0	508	
2	0	0	0	0	510	
3	0	0	0	0	509	
4	0	0	0	0	509	
5	0	0	0	0	509	
6	0	0	0	0	510	
7	0	0	0	0	513	
8	0	0	0	0	512	
9	0	0	0	0	511	
10	0	0	0	0	513	
11	0	0	0	0	515	
12	0	0	0	0	513	
13	0	0	0	0	511	
14	0	0	0	0	510	
15	0	0	0	0	512	
0	0	0	0	0	514	
1	0	0	0	0	519	
2	0	0	0	0	524	
3	0	0	0	0	525	
4	0	0	0	0	526	
5	0	0	0	0	527	
6	0	0	0	0	527	
7	0	0	0	0	526	
8	0	0	0	0	523	
9	0	0	0	0	521	
10	0	0	0	0	519	
11	0	0	0	0	514	
12	0	0	0	0	513	
13	0	0	0	0	514	
14	0	0	0	0	512	
15	0	0	0	0	509	
0	0	0	0	0	513	
1	0	0	0	0	518	
2	0	0	0	0	522	
3	0	0	0	0	529	
4	0	0	0	0	527	
5	0	0	0	0	530	
6	0	0	0	0	534	
7	0	0	0	0	534	
8	0	0	0	0	533	
9	0	0	0	0	533	
10	0	0	0	0	532	
11	0	0	0	0	529	
12	0	0	0	0	524	
13	0	0	0	0	514	
14	0	0	0	0	511	
15	0	0	0	0	518	
0	0	0	0	0	526	
1	0	0	0	0	530	
2	0	0	0	0	530	
3	0	0	0	0	531	
4	0	0	0	0	532	
5	0	0	0	0	532	
6	0	0	0	0	531	
7	0	0	0	0	529	
8	0	0	0	0	530	
9	0	0	0	0	530	
10	0	0	0	0	530	
11	0	0	0	0	531	
12	0	0	0	0	532	
13	0	0	0	0	535	
14	0	0	0	0	536	
15	0	0	0	0	534	
0	0	0	0	0	529	
1	0	0	0	0	527	
2	0	0	0	0	527	
3	0	0	0	0	527	
4	0	0	0	0	528	
5	0	0	0	0	524	
6	0	0	0	0	528	
7	0	0	0	0	528	
8	0	0	0	0	530	
9	0	0	0	0	532	
10	0	0	0	0	531	
11	0	0	0	0	530	
12	0	0	0	0	527	
13	0	0	0	0	527	
14	0	0	0	0	528	
15	0	0	0	0	528	
0	0	0	0	0	524	
1	0	0	0	0	521	
2	0	0	0	0	519	
3	0	0	0	0	517	
4	0	0	0	0	518	
5	0	0	0	0	519	
6	0	0	0	0	517	
7	0	0	0	0	516	
8	0	0	0	0	516	
9	0	0	0	0	514	
10	0	0	0	0	517	
11	0	0	0	0	517	
12	0	0	0	0	516	
13	0	0	0	0	513	
14	0	0	0	0	509	
15	0	0	0	0	507	
0	0	0	0	0	510	
1	0	0	0	0	512	
2	0	0	0	0	507	
3	0	0	0	0	499	
4	0	0	0	0	496	
5	0	0	0	0	496	
6	0	0	0	0	496	
7	0	0	0	0	497	
8	0	0	0	0	496	
9	0	0	0	0	496	
10	0	0	0	0	496	
11	0	0	0	0	499	
12	0	0	0	0	503	
13	0	0	0	0	502	
14	0	0	0	0	500	
15	0	0	0	0	494	
0	0	0	0	0	483	
1	0	0	0	0	479	
2	0	0	0	0	482	
3	0	0	0	0	491	
4	0	0	0	0	494	
5	0	0	0	0	495	
6	0	0	0	0	498	
7	0	0	0	0	496	
8	0	0	0	0	493	
9	0	0	0	0	491	
10	0	0	0	0	487	
11	0	0	0	0	488	
12	0	0	0	0	486	
13	0	0	0	0	487	
14	0	0	0	0	489	
15	0	0	0	0	488	
0	0	0	0	0	484	
1	0	0	0	0	479	
2	0	0	0	0	480	
3	0	0	0	0	487	
4	0	0	0	0	496	
5	0	0	0	0	498	
6	0	0	0	0	500	
7	0	0	0	0	501	
8	0	0	0	0	498	
9	0	0	0	0	497	
10	0	0	0	0	498	
11	0	0	0	0	497	
12	0	0	0	0	492	
13	0	0	0	0	487	
14	0	0	0	0	489	
15	0	0	0	0	490	
0	0	0	0	0	489	
1	0	0	0	0	487	
2	0	0	0	0	487	
3	0	0	0	0	489	
4	0	0	0	0	486	
5	0	0	0	0	483	
6	0	0	0	0	485	
7	0	0	0	0	489	
8	0	0	0	0	492	
9	0	0	0	0	493	
10	0	0	0	0	497	
11	0	0	0	0	500	
12	0	0	0	0	499	
13	0	0	0	0	496	
14	0	0	0	0	492	
15	0	0	0	0	491	
0	0	0	0	0	499	
1	0	0	0	0	502	
2	0	0	0	0	495	
3	0	0	0	0	490	
4	0	0	0	0	488	
5	0	0	0	0	490	
6	0	0	0	0	489	
7	0	0	0	0	485	
8	0	0	0	0	486	
9	0	0	0	0	486	
10	0	0	0	0	487	
11	0	0	0	0	490	
12	0	0	0	0	496	
13	0	0	0	0	499	
14	0	0	0	0	500	
15	0	0	0	0	497	
0	0	0	0	0	495	
1	0	0	0	0	495	
2	0	0	0	0	496	
3	0	0	0	0	495	
4	0	0	0	0	496	
5	0	0	0	0	496	
6	0	0	0	0	488	
7	0	0	0	0	484	
8	0	0	0	0	486	
9	0	0	0	0	495	
10	0	0	0	0	504	
11	0	0	0	0	506	
12	0	0	0	0	506	
13	0	0	0	0	505	
14	0	0	0	0	502	
15	0	0	0	0	499	
0	0	0	0	0	495	
1	0	0	0	0	494	
2	0	0	0	0	496	
3	0	0	0	0	496	
4	0	0	0	0	496	
5	0	0	0	0	496	
6	0	0	0	0	494	
7	0	0	0	0	494	
8	0	0	0	0	493	
9	0	0	0	0	496	
10	0	0	0	0	496	
11	0	0	0	0	496	
12	0	0	0	0	495	
13	0	0	0	0	496	
14	0	0	0	0	498	
15	0	0	0	0	500	
0	0	0	0	0	501	
1	0	0	0	0	504	
2	0	0	0	0	507	
3	0	0	0	0	508	
4	0	0	0	0	506	
5	0	0	0	0	502	
6	0	0	0	0	500	
7	0	0	0	0	498	
8	0	0	0	0	499	
9	0	0	0	0	500	
10	0	0	0	0	503	
11	0	0	0	0	506	
12	0	0	0	0	509	
13	0	0	0	0	511	
14	0	0	0	0	513	
15	0	0	0	0	516	
0	0	0	0	0	516	
1	0	0	0	0	512	
2	0	0	0	0	507	
3	0	0	0	0	504	
4	0	0	0	0	504	
5	0	0	0	0	506	
6	0	0	0	0	506	
7	0	0	0	0	508	
8	0	0	0	0	509	
9	0	0	0	0	506	
10	0	0	0	0	504	
11	0	0	0	0	503	
12	0	0	0	0	502	
13	0	0	0	0	499	
14	0	0	0	0	496	
15	0	0	0	0	497	
0	0	0	0	0	502	
1	0	0	0	0	508	
2	0	0	0	0	509	
3	0	0	0	0	505	
4	0	0	0	0	505	
5	0	0	0	0	513	
6	0	0	0	0	516	
7	0	0	0	0	509	
8	0	0	0	0	504	
9	0	0	0	0	504	
10	0	0	0	0	504	
11	0	0	0	0	503	
12	0	0	0	0	493	
13	0	0	0	0	496	
14	0	0	0	0	505	
15	0	0	0	0	513	
0	0	0	0	0	516	
1	0	0	0	0	511	
2	0	0	0	0	507	
3	0	0	0	0	509	
4	0	0	0	0	511	
5	0	0	0	0	515	
6	0	0	0	0	516	
7	0	0	0	0	516	
8	0	0	0	0	514	
9	0	0	0	0	512	
10	0	0	0	0	513	
11	0	0	0	0	512	
12	0	0	0	0	510	
13	0	0	0	0	511	
14	0	0	0	0	513	
15	0	0	0	0	515	
0	0	0	0	0	515	
1	0	0	0	0	514	
2	0	0	0	0	513	
3	0	0	0	0	515	
4	0	0	0	0	514	
5	0	0	0	0	512	
6	0	0	0	0	513	
7	0	0	0	0	520	
8	0	0	0	0	521	
9	0	0	0	0	516	
10	0	0	0	0	514	
11	0	0	0	0	511	
12	0	0	0	0	506	
13	0	0	0	0	507	
14	0	0	0	0	508	
15	0	0	0	0	510	
0	0	0	0	0	510	
1	0	0	0	0	507	
2	0	0	0	0	505	
3	0	0	0	0	506	
4	0	0	0	0	504	
5	0	0	0	0	503	
6	0	0	0	0	505	
7	0	0	0	0	505	
8	0	0	0	0	507	
9	0	0	0	0	505	
10	0	0	0	0	502	
11	0	0	0	0	496	
12	0	0	0	0	492	
13	0	0	0	0	492	
14	0	0	0	0	496	
15	0	0	0	0	509	
0	0	0	0	0	519	
1	0	0	0	0	521	
2	0	0	0	0	521	
3	0	0	0	0	522	
4	0	0	0	0	518	
5	0	0	0	0	514	
6	0	0	0	0	514	
7	0	0	0	0	518	
8	0	0	0	0	520	
9	0	0	0	0	519	
10	0	0	0	0	514	
11	0	0	0	0	509	
12	0	0	0	0	503	
13	0	0	0	0	501	
14	0	0	0	0	506	
15	0	0	0	0	506	
0	0	0	0	0	503	
1	0	0	0	0	501	
2	0	0	0	0	504	
3	0	0	0	0	508	
4	0	0	0	0	510	
5	0	0	0	0	510	
6	0	0	0	0	510	
7	0	0	0	0	510	
8	0	0	0	0	510	
9	0	0	0	0	510	
10	0	0	0	0	510	
11	0	0	0	0	507	
12	0	0	0	0	505	
13	0	0	0	0	504	
14	0	0	0	0	505	
15	0	0	0	0	517	
0	0	0	0	0	522	
1	0	0	0	0	518	
2	0	0	0	0	510	
3	0	0	0	0	502	
4	0	0	0	0	503	
5	0	0	0	0	503	
6	0	0	0	0	505	
7	0	0	0	0	515	
8	0	0	0	0	522	
9	0	0	0	0	511	
10	0	0	0	0	503	
11	0	0	0	0	502	
12	0	0	0	0	504	
13	0	0	0	0	508	
14	0	0	0	0	510	
15	0	0	0	0	513	
0	0	0	0	0	513	
1	0	0	0	0	512	
2	0	0	0	0	512	
3	0	0	0	0	513	
4	0	0	0	0	518	
5	0	0	0	0	523	
6	0	0	0	0	520	
7	0	0	0	0	518	
8	0	0	0	0	515	
9	0	0	0	0	514	
10	0	0	0	0	511	
11	0	0	0	0	509	
12	0	0	0	0	505	
13	0	0	0	0	505	
14	0	0	0	0	505	
15	0	0	0	0	503	
0	0	0	0	0	500	
1	0	0	0	0	497	
2	0	0	0	0	500	
3	0	0	0	0	506	
4	0	0	0	0	511	
5	0	0	0	0	517	
6	0	0	0	0	519	
7	0	0	0	0	521	
8	0	0	0	0	522	
9	0	0	0	0	520	
10	0	0	0	0	517	
11	0	0	0	0	514	
12	0	0	0	0	511	
13	0	0	0	0	509	
14	0	0	0	0	510	
15	0	0	0	0	512	
0	0	0	0	0	515	
1	0	0	0	0	519	
2	0	0	0	0	516	
3	0	0	0	0	516	
4	0	0	0	0	512	
5	0	0	0	0	510	
6	0	0	0	0	512	
7	0	0	0	0	511	
8	0	0	0	0	508	
9	0	0	0	0	506	
10	0	0	0	0	505	
11	0	0	0	0	508	
12	0	0	0	0	513	
13	0	0	0	0	513	
14	0	0	0	0	513	
15	0	0	0	0	510	
0	0	0	0	0	508	
1	0	0	0	0	507	
2	0	0	0	0	505	
3	0	0	0	0	508	
4	0	0	0	0	511	
5	0	0	0	0	510	
6	0	0	0	0	510	
7	0	0	0	0	509	
8	0	0	0	0	509	
9	0	0	0	0	508	
10	0	0	0	0	514	
11	0	0	0	0	516	
12	0	0	0	0	515	
13	0	0	0	0	512	
14	0	0	0	0	509	
15	0	0	0	0	513	
0	0	0	0	0	514	
1	0	0	0	0	514	
2	0	0	0	0	518	
3	0	0	0	0	520	
4	0	0	0	0	521	
5	0	0	0	0	523	
6	0	0	0	0	524	
7	0	0	0	0	525	
8	0	0	0	0	525	
9	0	0	0	0	521	
10	0	0	0	0	518	
11	0	0	0	0	514	
12	0	0	0	0	504	
13	0	0	0	0	501	
14	0	0	0	0	507	
15	0	0	0	0	508	
0	0	0	0	0	510	
1	0	0	0	0	511	
2	0	0	0	0	511	
3	0	0	0	0	512	
4	0	0	0	0	514	
5	0	0	0	0	521	
6	0	0	0	0	528	
7	0	0	0	0	538	
8	0	0	0	0	543	
9	0	0	0	0	543	
10	0	0	0	0	545	
11	0	0	0	0	548	
12	0	0	0	0	545	
13	0	0	0	0	543	
14	0	0	0	0	537	
15	0	0	0	0	532	
0	0	0	0	0	529	
1	0	0	0	0	525	
2	0	0	0	0	522	
3	0	0	0	0	519	
4	0	0	0	0	517	
5	0	0	0	0	514	
6	0	0	0	0	514	
7	0	0	0	0	517	
8	0	0	0	0	517	
9	0	0	0	0	519	
10	0	0	0	0	521	
11	0	0	0	0	520	
12	0	0	0	0	518	
13	0	0	0	0	513	
14	0	0	0	0	511	
15	0	0	0	0	510	
0	0	0	0	0	512	
1	0	0	0	0	512	
2	0	0	0	0	508	
3	0	0	0	0	507	
4	0	0	0	0	509	
5	0	0	0	0	508	
6	0	0	0	0	510	
7	0	0	0	0	512	
8	0	0	0	0	513	
9	0	0	0	0	513	
10	0	0	0	0	510	
11	0	0	0	0	511	
12	0	0	0	0	512	
13	0	0	0	0	510	
14	0	0	0	0	508	
15	0	0	0	0	505	
0	0	0	0	0	507	
1	0	0	0	0	507	
2	0	0	0	0	511	
3	0	0	0	0	512	
4	0	0	0	0	507	
5	0	0	0	0	505	
6	0	0	0	0	507	
7	0	0	0	0	509	
8	0	0	0	0	508	
9	0	0	0	0	508	
10	0	0	0	0	513	
11	0	0	0	0	514	
12	0	0	0	0	513	
13	0	0	0	0	510	
14	0	0	0	0	506	
15	0	0	0	0	507	
0	0	0	0	0	509	
1	0	0	0	0	508	
2	0	0	0	0	505	
3	0	0	0	0	502	
4	0	0	0	0	504	
5	0	0	0	0	504	
6	0	0	0	0	504	
7	0	0	0	0	506	
8	0	0	0	0	506	
9	0	0	0	0	507	
10	0	0	0	0	511	
11	0	0	0	0	518	
12	0	0	0	0	517	
13	0	0	0	0	516	
14	0	0	0	0	517	
15	0	0	0	0	514	
0	0	0	0	0	510	
1	0	0	0	0	505	
2	0	0	0	0	499	
3	0	0	0	0	494	
4	0	0	0	0	493	
5	0	0	0	0	496	
6	0	0	0	0	498	
7	0	0	0	0	502	
8	0	0	0	0	507	
9	0	0	0	0	511	
10	0	0	0	0	501	
11	0	0	0	0	495	
12	0	0	0	0	501	
13	0	0	0	0	513	
14	0	0	0	0	523	
15	0	0	0	0	526	
0	0	0	0	0	528	
1	0	0	0	0	531	
2	0	0	0	0	533	
3	0	0	0	0	538	
4	0	0	0	0	545	
5	0	0	0	0	553	
6	0	0	0	0	561	
7	0	0	0	0	572	
8	0	0	0	0	584	
9	0	0	0	0	600	
10	0	0	0	0	615	
11	0	0	0	0	625	
12	0	0	0	0	634	
13	0	0	0	0	645	
14	0	0	0	0	660	
15	0	0	0	0	671	
0	0	0	0	0	678	
1	0	0	0	0	682	
2	0	0	0	0	687	
3	0	0	0	0	686	
4	0	0	0	0	678	
5	0	0	0	0	669	
6	0	0	0	0	659	
7	0	0	0	0	654	
8	0	0	0	0	647	
9	0	0	0	0	642	
10	0	0	0	0	639	
11	0	0	0	0	630	
12	0	0	0	0	618	
13	0	0	0	0	604	
14	0	0	0	0	588	
15	0	0	0	0	569	
0	0	0	0	0	554	
1	0	0	0	0	545	
2	0	0	0	0	532	
3	0	0	0	0	513	
4	0	0	0	0	492	
5	0	0	0	0	473	
6	0	0	0	0	461	
7	0	0	0	0	455	
8	0	0	0	0	451	
9	0	0	0	0	449	
10	0	0	0	0	448	
11	0	0	0	0	451	
12	0	0	0	0	454	
13	0	0	0	0	454	
14	0	0	0	0	450	
15	0	0	0	0	456	
0	0	0	0	0	464	
1	0	0	0	0	466	
2	0	0	0	0	464	
3	0	0	0	0	464	
4	0	0	0	0	466	
5	0	0	0	0	465	
6	0	0	0	0	469	
7	0	0	0	0	472	
8	0	0	0	0	470	
9	0	0	0	0	469	
10	0	0	0	0	469	
11	0	0	0	0	471	
12	0	0	0	0	476	
13	0	0	0	0	475	
14	0	0	0	0	466	
15	0	0	0	0	463	
0	0	0	0	0	470	
1	0	0	0	0	478	
2	0	0	0	0	483	
3	0	0	0	0	481	
4	0	0	0	0	480	
5	0	0	0	0	481	
6	0	0	0	0	483	
7	0	0	0	0	485	
8	0	0	0	0	485	
9	0	0	0	0	484	
10	0	0	0	0	483	
11	0	0	0	0	485	
12	0	0	0	0	486	
13	0	0	0	0	487	
14	0	0	0	0	487	
15	0	0	0	0	484	
0	0	0	0	0	481	
1	0	0	0	0	481	
2	0	0	0	0	481	
3	0	0	0	0	488	
4	0	0	0	0	495	
5	0	0	0	0	497	
6	0	0	0	0	491	
7	0	0	0	0	486	
8	0	0	0	0	483	
9	0	0	0	0	481	
10	0	0	0	0	489	
11	0	0	0	0	497	
12	0	0	0	0	500	
13	0	0	0	0	502	
14	0	0	0	0	502	
15	0	0	0	0	503	
0	0	0	0	0	504	
1	0	0	0	0	507	
2	0	0	0	0	503	
3	0	0	0	0	499	
4	0	0	0	0	496	
5	0	0	0	0	496	
6	0	0	0	0	497	
7	0	0	0	0	496	
8	0	0	0	0	494	
9	0	0	0	0	487	
10	0	0	0	0	484	
11	0	0	0	0	488	
12	0	0	0	0	499	
13	0	0	0	0	508	
14	0	0	0	0	512	
15	0	0	0	0	512	
0	0	0	0	0	508	
1	0	0	0	0	502	
2	0	0	0	0	504	
3	0	0	0	0	508	
4	0	0	0	0	507	
5	0	0	0	0	503	
6	0	0	0	0	503	
7	0	0	0	0	500	
8	0	0	0	0	498	
9	0	0	0	0	498	
10	0	0	0	0	499	
11	0	0	0	0	499	
12	0	0	0	0	498	
13	0	0	0	0	499	
14	0	0	0	0	500	
15	0	0	0	0	502	
0	0	0	0	0	499	
1	0	0	0	0	500	
2	0	0	0	0	504	
3	0	0	0	0	503	
4	0	0	0	0	503	
5	0	0	0	0	505	
6	0	0	0	0	506	
7	0	0	0	0	503	
8	0	0	0	0	500	
9	0	0	0	0	502	
10	0	0	0	0	499	
11	0	0	0	0	500	
12	0	0	0	0	502	
13	0	0	0	0	501	
14	0	0	0	0	500	
15	0	0	0	0	505	
0	0	0	0	0	511	
1	0	0	0	0	515	
2	0	0	0	0	514	
3	0	0	0	0	513	
4	0	0	0	0	512	
5	0	0	0	0	511	
6	0	0	0	0	508	
7	0	0	0	0	506	
8	0	0	0	0	507	
9	0	0	0	0	508	
10	0	0	0	0	508	
11	0	0	0	0	505	
12	0	0	0	0	503	
13	0	0	0	0	502	
14	0	0	0	0	502	
15	0	0	0	0	496	
0	0	0	0	0	490	
1	0	0	0	0	495	
2	0	0	0	0	508	
3	0	0	0	0	517	
4	0	0	0	0	519	
5	0	0	0	0	518	
6	0	0	0	0	516	
7	0	0	0	0	515	
8	0	0	0	0	517	
9	0	0	0	0	518	
10	0	0	0	0	518	
11	0	0	0	0	516	
12	0	0	0	0	514	
13	0	0	0	0	509	
14	0	0	0	0	504	
15	0	0	0	0	508	
0	0	0	0	0	515	
1	0	0	0	0	518	
2	0	0	0	0	515	
3	0	0	0	0	515	
4	0	0	0	0	519	
5	0	0	0	0	520	
6	0	0	0	0	520	
7	0	0	0	0	521	
8	0	0	0	0	517	
9	0	0	0	0	515	
10	0	0	0	0	516	
11	0	0	0	0	517	
12	0	0	0	0	520	
13	0	0	0	0	522	
14	0	0	0	0	521	
15	0	0	0	0	518	
0	0	0	0	0	517	
1	0	0	0	0	517	
2	0	0	0	0	516	
3	0	0	0	0	515	
4	0	0	0	0	513	
5	0	0	0	0	512	
6	0	0	0	0	510	
7	0	0	0	0	516	
8	0	0	0	0	527	
9	0	0	0	0	530	
10	0	0	0	0	524	
11	0	0	0	0	519	
12	0	0	0	0	519	
13	0	0	0	0	522	
14	0	0	0	0	521	
15	0	0	0	0	517	
0	0	0	0	0	516	
1	0	0	0	0	519	
2	0	0	0	0	525	
3	0	0	0	0	532	
4	0	0	0	0	538	
5	0	0	0	0	545	
6	0	0	0	0	544	
7	0	0	0	0	543	
8	0	0	0	0	539	
9	0	0	0	0	529	
10	0	0	0	0	525	
11	0	0	0	0	521	
12	0	0	0	0	517	
13	0	0	0	0	515	
14	0	0	0	0	516	
15	0	0	0	0	516	
0	0	0	0	0	518	
1	0	0	0	0	520	
2	0	0	0	0	524	
3	0	0	0	0	525	
4	0	0	0	0	524	
5	0	0	0	0	521	
6	0	0	0	0	519	
7	0	0	0	0	523	
8	0	0	0	0	529	
9	0	0	0	0	534	
10	0	0	0	0	532	
11	0	0	0	0	531	
12	0	0	0	0	531	
13	0	0	0	0	531	
14	0	0	0	0	525	
15	0	0	0	0	513	
0	0	0	0	0	509	
1	0	0	0	0	511	
2	0	0	0	0	521	
3	0	0	0	0	529	
4	0	0	0	0	532	
5	0	0	0	0	529	
6	0	0	0	0	527	
7	0	0	0	0	525	
8	0	0	0	0	524	
9	0	0	0	0	523	
10	0	0	0	0	520	
11	0	0	0	0	515	
12	0	0	0	0	512	
13	0	0	0	0	513	
14	0	0	0	0	515	
15	0	0	0	0	516	
0	0	0	0	0	516	
1	0	0	0	0	516	
2	0	0	0	0	513	
3	0	0	0	0	511	
4	0	0	0	0	510	
5	0	0	0	0	510	
6	0	0	0	0	509	
7	0	0	0	0	510	
8	0	0	0	0	511	
9	0	0	0	0	516	
10	0	0	0	0	519	
11	0	0	0	0	516	
12	0	0	0	0	509	
13	0	0	0	0	503	
14	0	0	0	0	502	
15	0	0	0	0	501	
0	0	0	0	0	500	
1	0	0	0	0	499	
2	0	0	0	0	496	
3	0	0	0	0	493	
4	0	0	0	0	493	
5	0	0	0	0	496	
6	0	0	0	0	498	
7	0	0	0	0	496	
8	0	0	0	0	493	
9	0	0	0	0	489	
10	0	0	0	0	482	
11	0	0	0	0	478	
12	0	0	0	0	482	
13	0	0	0	0	494	
14	0	0	0	0	500	
15	0	0	0	0	498	
0	0	0	0	0	498	
1	0	0	0	0	494	
2	0	0	0	0	494	
3	0	0	0	0	495	
4	0	0	0	0	493	
5	0	0	0	0	492	
6	0	0	0	0	491	
7	0	0	0	0	493	
8	0	0	0	0	494	
9	0	0	0	0	493	
10	0	0	0	0	491	
11	0	0	0	0	488	
12	0	0	0	0	483	
13	0	0	0	0	479	
14	0	0	0	0	478	
15	0	0	0	0	481	
0	0	0	0	0	484	
1	0	0	0	0	484	
2	0	0	0	0	483	
3	0	0	0	0	483	
4	0	0	0	0	486	
5	0	0	0	0	489	
6	0	0	0	0	495	
7	0	0	0	0	500	
8	0	0	0	0	503	
9	0	0	0	0	502	
10	0	0	0	0	497	
11	0	0	0	0	495	
12	0	0	0	0	493	
13	0	0	0	0	489	
14	0	0	0	0	488	
15	0	0	0	0	488	
0	0	0	0	0	486	
1	0	0	0	0	485	
2	0	0	0	0	484	
3	0	0	0	0	485	
4	0	0	0	0	488	
5	0	0	0	0	493	
6	0	0	0	0	498	
7	0	0	0	0	498	
8	0	0	0	0	498	
9	0	0	0	0	499	
10	0	0	0	0	502	
11	0	0	0	0	500	
12	0	0	0	0	497	
13	0	0	0	0	494	
14	0	0	0	0	492	
15	0	0	0	0	490	
0	0	0	0	0	484	
1	0	0	0	0	472	
2	0	0	0	0	472	
3	0	0	0	0	483	
4	0	0	0	0	494	
5	0	0	0	0	495	
6	0	0	0	0	494	
7	0	0	0	0	498	
8	0	0	0	0	500	
9	0	0	0	0	502	
10	0	0	0	0	505	
11	0	0	0	0	505	
12	0	0	0	0	502	
13	0	0	0	0	497	
14	0	0	0	0	492	
15	0	0	0	0	485	
0	0	0	0	0	483	
1	0	0	0	0	482	
2	0	0	0	0	489	
3	0	0	0	0	496	
4	0	0	0	0	495	
5	0	0	0	0	489	
6	0	0	0	0	489	
7	0	0	0	0	499	
8	0	0	0	0	510	
9	0	0	0	0	514	
10	0	0	0	0	512	
11	0	0	0	0	509	
12	0	0	0	0	505	
13	0	0	0	0	502	
14	0	0	0	0	501	
15	0	0	0	0	497	
0	0	0	0	0	495	
1	0	0	0	0	497	
2	0	0	0	0	498	
3	0	0	0	0	504	
4	0	0	0	0	509	
5	0	0	0	0	508	
6	0	0	0	0	503	
7	0	0	0	0	502	
8	0	0	0	0	502	
9	0	0	0	0	501	
10	0	0	0	0	503	
11	0	0	0	0	508	
12	0	0	0	0	508	
13	0	0	0	0	504	
14	0	0	0	0	503	
15	0	0	0	0	508	
0	0	0	0	0	505	
1	0	0	0	0	503	
2	0	0	0	0	499	
3	0	0	0	0	498	
4	0	0	0	0	495	
5	0	0	0	0	494	
6	0	0	0	0	497	
7	0	0	0	0	498	
8	0	0	0	0	500	
9	0	0	0	0	503	
10	0	0	0	0	503	
11	0	0	0	0	503	
12	0	0	0	0	512	
13	0	0	0	0	521	
14	0	0	0	0	523	
15	0	0	0	0	516	
0	0	0	0	0	509	
1	0	0	0	0	504	
2	0	0	0	0	501	
3	0	0	0	0	499	
4	0	0	0	0	498	
5	0	0	0	0	500	
6	0	0	0	0	500	
7	0	0	0	0	498	
8	0	0	0	0	496	
9	0	0	0	0	497	
10	0	0	0	0	499	
11	0	0	0	0	502	
12	0	0	0	0	507	
13	0	0	0	0	509	
14	0	0	0	0	508	
15	0	0	0	0	504	
0	0	0	0	0	495	
1	0	0	0	0	491	
2	0	0	0	0	493	
3	0	0	0	0	499	
4	0	0	0	0	502	
5	0	0	0	0	504	
6	0	0	0	0	506	
7	0	0	0	0	508	
8	0	0	0	0	505	
9	0	0	0	0	505	
10	0	0	0	0	506	
11	0	0	0	0	508	
12	0	0	0	0	511	
13	0	0	0	0	513	
14	0	0	0	0	515	
15	0	0	0	0	514	
0	0	0	0	0	512	
1	0	0	0	0	511	
2	0	0	0	0	508	
3	0	0	0	0	507	
4	0	0	0	0	508	
5	0	0	0	0	506	
6	0	0	0	0	501	
7	0	0	0	0	499	
8	0	0	0	0	506	
9	0	0	0	0	515	
10	0	0	0	0	518	
11	0	0	0	0	517	
12	0	0	0	0	514	
13	0	0	0	0	513	
14	0	0	0	0	511	
15	0	0	0	0	511	
0	0	0	0	0	509	
1	0	0	0	0	512	
2	0	0	0	0	516	
3	0	0	0	0	515	
4	0	0	0	0	512	
5	0	0	0	0	510	
6	0	0	0	0	506	
7	0	0	0	0	503	
8	0	0	0	0	502	
9	0	0	0	0	504	
10	0	0	0	0	506	
11	0	0	0	0	506	
12	0	0	0	0	507	
13	0	0	0	0	511	
14	0	0	0	0	512	
15	0	0	0	0	512	
0	0	0	0	0	508	
1	0	0	0	0	507	
2	0	0	0	0	509	
3	0	0	0	0	513	
4	0	0	0	0	512	
5	0	0	0	0	508	
6	0	0	0	0	506	
7	0	0	0	0	507	
8	0	0	0	0	509	
9	0	0	0	0	511	
10	0	0	0	0	512	
11	0	0	0	0	513	
12	0	0	0	0	512	
13	0	0	0	0	511	
14	0	0	0	0	509	
15	0	0	0	0	507	
0	0	0	0	0	508	
1	0	0	0	0	510	
2	0	0	0	0	509	
3	0	0	0	0	507	
4	0	0	0	0	504	
5	0	0	0	0	506	
6	0	0	0	0	506	
7	0	0	0	0	510	
8	0	0	0	0	511	
9	0	0	0	0	513	
10	0	0	0	0	516	
11	0	0	0	0	513	
12	0	0	0	0	511	
13	0	0	0	0	509	
14	0	0	0	0	505	
15	0	0	0	0	497	
0	0	0	0	0	495	
1	0	0	0	0	498	
2	0	0	0	0	506	
3	0	0	0	0	510	
4	0	0	0	0	512	
5	0	0	0	0	513	
6	0	0	0	0	515	
7	0	0	0	0	512	
8	0	0	0	0	510	
9	0	0	0	0	511	
10	0	0	0	0	509	
11	0	0	0	0	507	
12	0	0	0	0	508	
13	0	0	0	0	508	
14	0	0	0	0	508	
15	0	0	0	0	509	
0	0	0	0	0	510	
1	0	0	0	0	512	
2	0	0	0	0	514	
3	0	0	0	0	513	
4	0	0	0	0	510	
5	0	0	0	0	510	
6	0	0	0	0	511	
7	0	0	0	0	510	
8	0	0	0	0	505	
9	0	0	0	0	503	
10	0	0	0	0	506	
11	0	0	0	0	507	
12	0	0	0	0	506	
13	0	0	0	0	500	
14	0	0	0	0	500	
15	0	0	0	0	499	
0	0	0	0	0	499	
1	0	0	0	0	505	
2	0	0	0	0	509	
3	0	0	0	0	512	
4	0	0	0	0	511	
5	0	0	0	0	507	
6	0	0	0	0	504	
7	0	0	0	0	507	
8	0	0	0	0	508	
9	0	0	0	0	505	
10	0	0	0	0	502	
11	0	0	0	0	503	
12	0	0	0	0	506	
13	0	0	0	0	507	
14	0	0	0	0	508	
15	0	0	0	0	508	
0	0	0	0	0	507	
1	0	0	0	0	509	
2	0	0	0	0	511	
3	0	0	0	0	517	
4	0	0	0	0	523	
5	0	0	0	0	524	
6	0	0	0	0	520	
7	0	0	0	0	515	
8	0	0	0	0	511	
9	0	0	0	0	506	
10	0	0	0	0	506	
11	0	0	0	0	511	
12	0	0	0	0	514	
13	0	0	0	0	514	
14	0	0	0	0	513	
15	0	0	0	0	514	
0	0	0	0	0	515	
1	0	0	0	0	516	
2	0	0	0	0	519	
3	0	0	0	0	521	
4	0	0	0	0	515	
5	0	0	0	0	507	
6	0	0	0	0	502	
7	0	0	0	0	507	
8	0	0	0	0	511	
9	0	0	0	0	512	
10	0	0	0	0	513	
11	0	0	0	0	516	
12	0	0	0	0	514	
13	0	0	0	0	513	
14	0	0	0	0	510	
15	0	0	0	0	509	
0	0	0	0	0	510	
1	0	0	0	0	510	
2	0	0	0	0	513	
3	0	0	0	0	514	
4	0	0	0	0	510	
5	0	0	0	0	498	
6	0	0	0	0	494	
7	0	0	0	0	500	
8	0	0	0	0	511	
9	0	0	0	0	515	
10	0	0	0	0	513	
11	0	0	0	0	512	
12	0	0	0	0	513	
13	0	0	0	0	517	
14	0	0	0	0	519	
15	0	0	0	0	518	
0	0	0	0	0	518	
1	0	0	0	0	518	
2	0	0	0	0	519	
3	0	0	0	0	518	
4	0	0	0	0	514	
5	0	0	0	0	510	
6	0	0	0	0	507	
7	0	0	0	0	506	
8	0	0	0	0	506	
9	0	0	0	0	510	
10	0	0	0	0	512	
11	0	0	0	0	510	
12	0	0	0	0	511	
13	0	0	0	0	508	
14	0	0	0	0	510	
15	0	0	0	0	513	
0	0	0	0	0	515	
1	0	0	0	0	516	
2	0	0	0	0	517	
3	0	0	0	0	516	
4	0	0	0	0	515	
5	0	0	0	0	515	
6	0	0	0	0	516	
7	0	0	0	0	516	
8	0	0	0	0	512	
9	0	0	0	0	509	
10	0	0	0	0	510	
11	0	0	0	0	508	
12	0	0	0	0	507	
13	0	0	0	0	503	
14	0	0	0	0	499	
15	0	0	0	0	501	
0	0	0	0	0	504	
1	0	0	0	0	506	
2	0	0	0	0	508	
3	0	0	0	0	511	
4	0	0	0	0	517	
5	0	0	0	0	521	
6	0	0	0	0	523	
7	0	0	0	0	523	
8	0	0	0	0	520	
9	0	0	0	0	517	
10	0	0	0	0	513	
11	0	0	0	0	511	
12	0	0	0	0	511	
13	0	0	0	0	509	
14	0	0	0	0	506	
15	0	0	0	0	505	
0	0	0	0	0	510	
1	0	0	0	0	517	
2	0	0	0	0	521	
3	0	0	0	0	519	
4	0	0	0	0	515	
5	0	0	0	0	514	
6	0	0	0	0	515	
7	0	0	0	0	519	
8	0	0	0	0	526	
9	0	0	0	0	529	
10	0	0	0	0	526	
11	0	0	0	0	517	
12	0	0	0	0	511	
13	0	0	0	0	508	
14	0	0	0	0	510	
15	0	0	0	0	510	
0	0	0	0	0	510	
1	0	0	0	0	510	
2	0	0	0	0	512	
3	0	0	0	0	513	
4	0	0	0	0	518	
5	0	0	0	0	524	
6	0	0	0	0	523	
7	0	0	0	0	521	
8	0	0	0	0	516	
9	0	0	0	0	516	
10	0	0	0	0	510	
11	0	0	0	0	500	
12	0	0	0	0	500	
13	0	0	0	0	510	
14	0	0	0	0	520	
15	0	0	0	0	522	
0	0	0	0	0	519	
1	0	0	0	0	519	
2	0	0	0	0	520	
3	0	0	0	0	519	
4	0	0	0	0	516	
5	0	0	0	0	521	
6	0	0	0	0	525	
7	0	0	0	0	522	
8	0	0	0	0	521	
9	0	0	0	0	521	
10	0	0	0	0	523	
11	0	0	0	0	524	
12	0	0	0	0	528	
13	0	0	0	0	531	
14	0	0	0	0	530	
15	0	0	0	0	529	
0	0	0	0	0	529	
1	0	0	0	0	528	
2	0	0	0	0	528	
3	0	0	0	0	528	
4	0	0	0	0	526	
5	0	0	0	0	526	
6	0	0	0	0	525	
7	0	0	0	0	521	
8	0	0	0	0	519	
9	0	0	0	0	517	
10	0	0	0	0	514	
11	0	0	0	0	518	
12	0	0	0	0	526	
13	0	0	0	0	524	
14	0	0	0	0	520	
15	0	0	0	0	515	
0	0	0	0	0	508	
1	0	0	0	0	508	
2	0	0	0	0	507	
3	0	0	0	0	502	
4	0	0	0	0	501	
5	0	0	0	0	502	
6	0	0	0	0	507	
7	0	0	0	0	511	
8	0	0	0	0	511	
9	0	0	0	0	514	
10	0	0	0	0	516	
11	0	0	0	0	515	
12	0	0	0	0	511	
13	0	0	0	0	504	
14	0	0	0	0	502	
15	0	0	0	0	507	
0	0	0	0	0	509	
1	0	0	0	0	509	
2	0	0	0	0	508	
3	0	0	0	0	503	
4	0	0	0	0	499	
5	0	0	0	0	498	
6	0	0	0	0	500	
7	0	0	0	0	501	
8	0	0	0	0	507	
9	0	0	0	0	513	
10	0	0	0	0	514	
11	0	0	0	0	510	
12	0	0	0	0	508	
13	0	0	0	0	512	
14	0	0	0	0	512	
15	0	0	0	0	501	
0	0	0	0	0	488	
1	0	0	0	0	486	
2	0	0	0	0	495	
3	0	0	0	0	505	
4	0	0	0	0	513	
5	0	0	0	0	513	
6	0	0	0	0	510	
7	0	0	0	0	509	
8	0	0	0	0	508	
9	0	0	0	0	510	
10	0	0	0	0	510	
11	0	0	0	0	511	
12	0	0	0	0	510	
13	0	0	0	0	508	
14	0	0	0	0	507	
15	0	0	0	0	504	
0	0	0	0	0	505	
1	0	0	0	0	507	
2	0	0	0	0	506	
3	0	0	0	0	502	
4	0	0	0	0	502	
5	0	0	0	0	508	
6	0	0	0	0	512	
7	0	0	0	0	511	
8	0	0	0	0	510	
9	0	0	0	0	504	
10	0	0	0	0	501	
11	0	0	0	0	500	
12	0	0	0	0	500	
13	0	0	0	0	497	
14	0	0	0	0	496	
15	0	0	0	0	495	
0	0	0	0	0	493	
1	0	0	0	0	491	
2	0	0	0	0	492	
3	0	0	0	0	495	
4	0	0	0	0	499	
5	0	0	0	0	506	
6	0	0	0	0	513	
7	0	0	0	0	519	
8	0	0	0	0	521	
9	0	0	0	0	528	
10	0	0	0	0	540	
11	0	0	0	0	548	
12	0	0	0	0	563	
13	0	0	0	0	579	
14	0	0	0	0	591	
15	0	0	0	0	599	
0	0	0	0	0	606	
1	0	0	0	0	615	
2	0	0	0	0	621	
3	0	0	0	0	629	
4	0	0	0	0	639	
5	0	0	0	0	649	
6	0	0	0	0	661	
7	0	0	0	0	668	
8	0	0	0	0	677	
9	0	0	0	0	683	
10	0	0	0	0	681	
11	0	0	0	0	679	
12	0	0	0	0	675	
13	0	0	0	0	669	
14	0	0	0	0	658	
15	0	0	0	0	647	
0	0	0	0	0	639	
1	0	0	0	0	628	
2	0	0	0	0	616	
3	0	0	0	0	601	
4	0	0	0	0	586	
5	0	0	0	0	572	
6	0	0	0	0	556	
7	0	0	0	0	543	
8	0	0	0	0	529	
9	0	0	0	0	514	
10	0	0	0	0	500	
11	0	0	0	0	483	
12	0	0	0	0	470	
13	0	0	0	0	460	
14	0	0	0	0	455	
15	0	0	0	0	450	
0	0	0	0	0	450	
1	0	0	0	0	453	
2	0	0	0	0	457	
3	0	0	0	0	458	
4	0	0	0	0	458	
5	0	0	0	0	458	
6	0	0	0	0	455	
7	0	0	0	0	451	
8	0	0	0	0	444	
9	0	0	0	0	448	
10	0	0	0	0	460	
11	0	0	0	0	470	
12	0	0	0	0	470	
13	0	0	0	0	470	
14	0	0	0	0	474	
15	0	0	0	0	475	
0	0	0	0	0	475	
1	0	0	0	0	479	
2	0	0	0	0	481	
3	0	0	0	0	480	
4	0	0	0	0	478	
5	0	0	0	0	478	
6	0	0	0	0	480	
7	0	0	0	0	477	
8	0	0	0	0	475	
9	0	0	0	0	473	
10	0	0	0	0	475	
11	0	0	0	0	482	
12	0	0	0	0	489	
13	0	0	0	0	491	
14	0	0	0	0	486	
15	0	0	0	0	483	
0	0	0	0	0	486	
1	0	0	0	0	487	
2	0	0	0	0	487	
3	0	0	0	0	486	
4	0	0	0	0	493	
5	0	0	0	0	494	
6	0	0	0	0	486	
7	0	0	0	0	479	
8	0	0	0	0	477	
9	0	0	0	0	480	
10	0	0	0	0	483	
11	0	0	0	0	484	
12	0	0	0	0	486	
13	0	0	0	0	488	
14	0	0	0	0	489	
15	0	0	0	0	487	
0	0	0	0	0	487	
1	0	0	0	0	484	
2	0	0	0	0	483	
3	0	0	0	0	484	
4	0	0	0	0	486	
5	0	0	0	0	488	
6	0	0	0	0	490	
7	0	0	0	0	489	
8	0	0	0	0	488	
9	0	0	0	0	485	
10	0	0	0	0	484	
11	0	0	0	0	484	
12	0	0	0	0	486	
13	0	0	0	0	488	
14	0	0	0	0	492	
15	0	0	0	0	496	
0	0	0	0	0	503	
1	0	0	0	0	501	
2	0	0	0	0	496	
3	0	0	0	0	496	
4	0	0	0	0	495	
5	0	0	0	0	497	
6	0	0	0	0	499	
7	0	0	0	0	499	
8	0	0	0	0	497	
